ajre2-L02
Graph Created on: 2024-07-22 12:55:40.250
Recording on: 2024-07-22 12:58:21.171
2 msec/sample
3 channels
EMG
mV
Integrated EMG (est.)
mV-sec
Clench Force
kg
CH1	CH40	CH41	
55222 samples	55222 samples	55222 samples	
0.110474	0.00110474	0.0174386	
0.0183105	0.00128784	0.0174386	
-0.0531006	0.00181885	0.0174386	
0.0341797	0.00216064	0.0174386	
0.0238037	0.00239868	0.0174386	
0.0463867	0.00286255	0.0174386	
-0.0543213	0.00340576	0.0174386	
-0.0500488	0.00390625	0.0174386	
0.0341797	0.00424805	0.0174386	
0.055542	0.00480347	0.0174386	
-0.0976563	0.00578003	0.0174386	
0.00549316	0.00583496	0.0174386	
0.0317383	0.00615234	0.0174386	
0.020752	0.00635986	0.0174386	
0.0518799	0.00687866	0.0174386	
-0.0524902	0.00740356	0.0174386	
0.00854492	0.00748901	0.0174386	
0.0958252	0.00844727	0.0174386	
-0.0500488	0.00894775	0.0174386	
-0.0250244	0.009198	0.0174386	
0.0323486	0.00952148	1.11022E-16	
-0.0134277	0.00965576	1.11022E-16	
0.0744629	0.0104004	1.11022E-16	
-0.0579834	0.0109802	1.11022E-16	
-0.0115967	0.0110962	1.11022E-16	
0.101929	0.0121155	1.11022E-16	
0.0360107	0.0124756	1.11022E-16	
-0.0360107	0.0128357	0.0174386	
0.032959	0.0131653	0.0174386	
0.0323486	0.0134888	0.0174386	
0.045166	0.0139404	0.0174386	
-0.00549316	0.0139954	0.0174386	
-0.055542	0.0145508	0.0174386	
0.0201416	0.0147522	1.11022E-16	
0.0854492	0.0156067	1.11022E-16	
-0.0842285	0.016449	1.11022E-16	
0.0244141	0.0166931	1.11022E-16	
0.0323486	0.0170166	1.11022E-16	
0.0109863	0.0171265	1.11022E-16	
0.0549316	0.0176758	0	
-0.0537109	0.0182129	0	
0.0115967	0.0183289	0	
0.098877	0.0193176	1.11022E-16	
-0.0378418	0.019696	1.11022E-16	
-0.0219727	0.0199158	1.11022E-16	
0.0463867	0.0203796	1.11022E-16	
0.00732422	0.0204529	1.11022E-16	
0.0524902	0.0209778	1.11022E-16	
-0.0628662	0.0216064	1.11022E-16	
0.0189209	0.0217957	1.11022E-16	
0.101929	0.0228149	1.11022E-16	
0.0115967	0.0229309	1.11022E-16	
-0.0506592	0.0234375	1.11022E-16	
0.0280762	0.0237183	1.11022E-16	
-0.00244141	0.0237427	1.11022E-16	
0.0549316	0.024292	1.11022E-16	
-0.020752	0.0244995	1.11022E-16	
-0.0811768	0.0253113	1.11022E-16	
0.0531006	0.0258423	1.11022E-16	
0.0817871	0.0266602	1.11022E-16	
-0.101929	0.0276794	1.11022E-16	
0.00549316	0.0277344	1.11022E-16	
0.0366211	0.0281006	1.11022E-16	
0.0299072	0.0283997	1.11022E-16	
0.0256348	0.028656	1.11022E-16	
-0.0683594	0.0293396	1.11022E-16	
0.0170898	0.0295105	1.11022E-16	
0.0915527	0.030426	0	
-0.0592041	0.0310181	0	
-0.0115967	0.031134	0	
0.0274658	0.0314087	0	
-0.00488281	0.0314575	0	
0.0750732	0.0322083	0	
-0.0726318	0.0329346	0	
0.0109863	0.0330444	0	
0.108032	0.0341248	0	
0.0500488	0.0346252	0	
-0.0146484	0.0347717	0	
0.043335	0.0352051	1.11022E-16	
0.00305176	0.0352356	1.11022E-16	
0.0524902	0.0357605	1.11022E-16	
-0.0238037	0.0359985	0	
-0.0579834	0.0365784	0	
0.03479	0.0369263	0	
0.0402832	0.0373291	0	
-0.119019	0.0385193	0	
0.00976563	0.0386169	0	
0.0323486	0.0389404	0	
0.00671387	0.0390076	0	
0.0500488	0.0395081	0	
-0.0714111	0.0402222	0	
0.0164795	0.040387	0	
0.0933838	0.0413208	0	
-0.0421143	0.0417419	0	
-0.0219727	0.0419617	0	
0.0616455	0.0425781	0	
0.00366211	0.0426147	0	
0.10376	0.0436523	0	
-0.0482178	0.0441345	0	
-0.0140381	0.0442749	0	
0.0891113	0.0440613	0	
0.0354004	0.0442322	0	
-0.057373	0.0442749	0	
0.0128174	0.0440613	0	
-0.0238037	0.0440613	0	
0.0280762	0.0438782	0	
-0.0524902	0.0438599	0	
-0.0762939	0.0441223	0	
0.0378418	0.0441589	0	
0.057373	0.0441772	0	
-0.0799561	0.0440002	0	
-0.00366211	0.0439819	0	
0.0408936	0.0440735	0	
0.0286865	0.0441528	0	
0.0488281	0.0441223	0	
-0.0665283	0.0442627	0	
0.0170898	0.0443481	0	
0.102539	0.0444153	0	
-0.0396729	0.0443115	0	
-0.0268555	0.0443298	0	
0.0219727	0.0442261	0	
-0.00305176	0.0441223	0	
0.0585938	0.0439636	0	
-0.067749	0.0440613	0	
-0.00732422	0.0440186	0	
0.0866699	0.043866	0	
0.0250244	0.0437561	0	
-0.0256348	0.0436523	0	
0.00854492	0.0434082	0	
0.0213623	0.0432983	0	
0.043335	0.04328	0	
-0.022583	0.0434509	0	
-0.0549316	0.0434448	0	
0.0463867	0.0437073	0	
0.055542	0.0434082	0	
-0.102539	0.0435913	0	
0.00244141	0.0433716	0	
0.0378418	0.0434265	0	
0	0.0433167	0	
0.0311279	0.0430786	0	
-0.0469971	0.0430115	0	
-0.000610352	0.0429016	0	
0.0750732	0.0426636	0	
-0.0494385	0.0427795	0	
-0.0256348	0.0428162	0	
0.0384521	0.0427368	0	
-0.0299072	0.0429626	0	
0.0506592	0.0429443	0	
-0.0628662	0.0429443	0	
-0.00305176	0.0427856	0	
0.0805664	0.042572	0	
0.0152588	0.0426086	0	
-0.0360107	0.0424622	0	
0.0158691	0.0423401	0	
0.0305176	0.0426208	0	
0.0683594	0.0427551	0	
-0.0579834	0.0431274	0	
-0.0524902	0.0428406	0	
0.0640869	0.0429504	0	
0.0714111	0.0428467	0	
-0.115356	0.042981	0	
0.0115967	0.043042	0	
0.0585938	0.0432617	0	
0.0164795	0.0431274	0	
0.0439453	0.0433105	0	
-0.0738525	0.0433655	0	
0.0244141	0.0434387	0	
0.124512	0.0437683	0	
-0.0933838	0.0441101	0	
-0.0274658	0.0442688	0	
0.0567627	0.0445618	0	
-0.0146484	0.0446594	0	
0.0610352	0.044519	0	
-0.0653076	0.0444458	0	
-0.0360107	0.044696	0	
0.10498	0.0446655	0	
0.0213623	0.0443787	0	
-0.0390625	0.0446228	0	
0.0280762	0.0444702	0	
0.0189209	0.0446289	0	
0.0244141	0.0443481	0	
-0.0354004	0.0444641	0	
-0.0549316	0.0444336	0	
0.0415039	0.0445007	0	
0.0775146	0.044873	0	
-0.108032	0.0447632	0	
-0.0213623	0.0448792	0	
0.0836182	0.0453918	0	
0.022583	0.0455505	0	
0.0311279	0.0453613	0	
-0.0653076	0.0453003	0	
0.0256348	0.0453918	0	
0.106201	0.04552	0	
-0.0567627	0.0456665	0	
-0.0292969	0.0457397	0	
0.0250244	0.0453735	0	
-0.0201416	0.0455383	0	
0.0726318	0.0452271	0	
-0.0622559	0.0453674	0	
-0.010376	0.0453308	0	
0.112915	0.0455688	0	
0.0378418	0.0455933	0	
-0.0305176	0.0453247	0	
0.0323486	0.04552	0	
0.0189209	0.0454712	0	
0.0512695	0.0457031	0	
-0.0152588	0.0453308	0	
-0.0561523	0.0451294	0	
0.0146484	0.0448975	0	
0.0653076	0.0449768	0	
-0.0878906	0.0450562	0	
-0.00793457	0.0450989	0	
0.0360107	0.04505	0	
0.0354004	0.0451172	0	
0.0280762	0.0449097	0	
-0.0604248	0.0448486	0	
0	0.0446777	0	
0.112915	0.0447815	0	
-0.0445557	0.0448303	0	
-0.0744629	0.0453064	0	
0.0323486	0.0454102	0	
-0.00854492	0.0454651	0	
0.0524902	0.0454041	0	
-0.0830078	0.0455566	0	
-0.010376	0.0455872	0	
0.0939941	0.0456604	0	
0.0177002	0.0455872	0	
-0.057373	0.0459045	0	
0.0317383	0.0461365	0	
0.0238037	0.0461609	0	
0.0280762	0.0460083	0	
-0.0201416	0.0459839	0	
-0.0549316	0.0459839	0	
0.0323486	0.0458435	0	
0.0714111	0.0460022	0	
-0.0872803	0.0458496	0	
0.00244141	0.0458496	0	
0.0469971	0.0459412	0	
0.0268555	0.0462097	0	
0.0622559	0.046521	0	
-0.0457764	0.0465088	0	
0.00183105	0.046521	0	
0.109863	0.0468689	0	
-0.0274658	0.0466492	0	
-0.0396729	0.0467896	0	
0.0354004	0.046759	0	
-0.0170898	0.0466309	0	
0.0646973	0.0467712	0	
-0.0817871	0.0469604	0	
-0.010376	0.0470337	0	
0.0830078	0.0470581	0	
0.0195313	0.0471008	0	
-0.057373	0.0473145	0	
0.0439453	0.0475952	0	
0.0341797	0.0476318	0	
0.0427246	0.0473755	0	
-0.0262451	0.0470581	0	
-0.0384521	0.0469177	0	
0.0653076	0.0469299	0	
0.0744629	0.0469604	0	
-0.090332	0.0467102	0	
0.0146484	0.0467407	0	
0.0463867	0.0466187	0	
0.0238037	0.0466919	0	
0.0292969	0.0465454	0	
-0.0469971	0.0462769	0	
-0.010376	0.0461365	0	
0.0927734	0.0458191	0	
-0.0366211	0.0452515	0	
-0.0280762	0.0452576	0	
0.00610352	0.044751	0	
0.0012207	0.0446167	0	
0.105591	0.0450623	0	
-0.065918	0.0450684	0	
-0.00854492	0.0447937	0	
0.098877	0.0447327	0	
0.0366211	0.0448853	0	
-0.0720215	0.0452148	0	
0.0280762	0.0452148	0	
0.0238037	0.0452637	0	
0.0189209	0.0452087	0	
-0.0390625	0.0452454	0	
-0.0769043	0.0454651	0	
0.0402832	0.0454529	0	
0.0744629	0.0454224	0	
-0.0915527	0.0452576	0	
0.0109863	0.0451538	0	
0.0524902	0.0448425	0	
0.0140381	0.0447571	0	
0.0823975	0.0452698	0	
-0.0427246	0.0450439	0	
0.0317383	0.045105	0	
0.0927734	0.0449707	0	
-0.03479	0.044751	0	
-0.022583	0.0446838	0	
0.0268555	0.0447021	0	
-0.0219727	0.0447205	0	
0.0463867	0.044458	0	
-0.0946045	0.0447815	0	
-0.0335693	0.0450134	0	
0.0793457	0.0446777	0	
0.012207	0.0444214	0	
-0.043335	0.0445496	0	
0.0585938	0.044812	0	
0.0506592	0.0451294	0	
0.0488281	0.045105	0	
-0.0128174	0.0450806	0	
-0.010376	0.0446228	0	
0.0665283	0.0451416	0	
0.0750732	0.0452393	0	
-0.108643	0.0454468	0	
-0.00244141	0.0453918	1.11022E-16	
0.0628662	0.0456604	1.11022E-16	
0.00305176	0.0453369	1.11022E-16	
0.067749	0.0457336	1.11022E-16	
-0.0408936	0.0455383	1.11022E-16	
0.00732422	0.0456116	1.11022E-16	
0.108643	0.0455688	1.11022E-16	
-0.0231934	0.0453552	1.11022E-16	
0.0213623	0.0448242	1.11022E-16	
0.0372314	0.044873	1.11022E-16	
-0.00549316	0.0448425	0	
0.101318	0.0453308	0	
-0.0854492	0.0453552	0	
-0.0653076	0.0459045	0	
0.0720215	0.0456848	0	
0.0323486	0.0458313	0	
-0.0994873	0.0462524	1.11022E-16	
-0.0256348	0.0461914	1.11022E-16	
-0.00427246	0.0459961	1.11022E-16	
0.0152588	0.0458679	1.11022E-16	
-0.0421143	0.0460876	1.11022E-16	
-0.057373	0.0461121	1.11022E-16	
0.0543213	0.0463318	1.11022E-16	
0.0714111	0.0463318	1.11022E-16	
-0.0805664	0.0462646	1.11022E-16	
0.00854492	0.0463257	0	
0.0250244	0.046106	0	
0.0286865	0.0461243	0	
0.0622559	0.0461243	0	
-0.0170898	0.0458374	0	
0.0280762	0.0460999	0	
0.128174	0.046283	0	
-0.0537109	0.0465454	0	
-0.032959	0.0464783	0	
0.0756836	0.0468811	1.11022E-16	
0	0.0467102	1.11022E-16	
0.0823975	0.0468872	1.11022E-16	
-0.0891113	0.0469604	1.11022E-16	
-0.0421143	0.0472778	1.11022E-16	
0.100708	0.0474548	1.11022E-16	
0.057373	0.0478333	1.11022E-16	
-0.0537109	0.0477966	1.11022E-16	
0.0317383	0.0476746	1.11022E-16	
0.00793457	0.0474121	1.11022E-16	
0.0445557	0.0474304	1.11022E-16	
-0.00915527	0.0472595	1.11022E-16	
-0.0494385	0.0473694	1.11022E-16	
0.0524902	0.0472412	1.11022E-16	
0.0469971	0.0469666	1.11022E-16	
-0.125122	0.0473145	0.0174386	
0.0250244	0.0474182	0.0174386	
0.0524902	0.0474792	0.0174386	
-0.0292969	0.0475342	0.0174386	
0.0195313	0.0474365	0.0174386	
-0.0775146	0.0477417	0.0174386	
-0.00732422	0.0477112	0.0174386	
0.0982666	0.0477661	0.0174386	
-0.0378418	0.0477783	0.0174386	
-0.0317383	0.0478149	0.0174386	
0.03479	0.0481018	0.0174386	
-0.00183105	0.0481079	0.0174386	
0.078125	0.0478333	0.0174386	
-0.0543213	0.0477173	0.0174386	
0.00793457	0.0477112	0.0174386	
0.0958252	0.0476807	0.0174386	
0.043335	0.0477478	0.0174386	
-0.045166	0.0474792	0.0174386	
0.0354004	0.0475525	0.0174386	
0.0201416	0.0475159	0.0174386	
0.020752	0.0475342	0.0174386	
-0.00244141	0.047168	0.0174386	
-0.0769043	0.047168	0.0348772	
0.00854492	0.0468506	0.0348772	
0.0726318	0.0468323	0.0348772	
-0.10376	0.0469543	0.0348772	
-0.00305176	0.046875	0.0348772	
0.0299072	0.0466492	0.0348772	
0.0415039	0.0469238	0.0348772	
0.0439453	0.0465393	0.0348772	
-0.0708008	0.0468201	0.0348772	
0.0177002	0.0466797	0.0348772	
0.112915	0.0468811	0.0348772	
0.0170898	0.0467041	0.0348772	
-0.0305176	0.0467834	0.0348772	
0.0195313	0.0467102	0.0348772	
0.00732422	0.0465637	0.0348772	
0.0708008	0.0468079	0.0348772	
-0.0653076	0.0465149	0.0348772	
-0.022583	0.046405	0.0348772	
0.0604248	0.0462158	0.0348772	
0.0219727	0.0463135	0.0348772	
-0.065918	0.0465393	0.0523158	
0.0341797	0.0462952	0.0523158	
0.0134277	0.0459229	0.0523158	
0.0537109	0.0459717	0.0523158	
-0.00854492	0.045929	0.0523158	
-0.0518799	0.046344	0.0523158	
0.0299072	0.0459778	0.0523158	
0.0927734	0.0461548	0.0523158	
-0.0634766	0.0457031	0.0523158	
-0.00732422	0.045752	0.0523158	
0.0598145	0.0457214	0.0523158	
0.0189209	0.0458801	0.0523158	
0.0524902	0.0457275	0.0348772	
-0.0280762	0.0455994	0.0348772	
-0.00671387	0.0455933	0.0348772	
0.0952148	0.045459	0.0523158	
-0.010376	0.0453308	0.0523158	
-0.0402832	0.04552	0.0523158	
0.0360107	0.0455078	0.0523158	
-0.000610352	0.045459	0.0523158	
0.0982666	0.0454285	0.0523158	
-0.0665283	0.0452393	0.0523158	
-0.0213623	0.0447998	0.0523158	
0.0640869	0.0447205	0.0523158	
0.055542	0.0449524	0.0523158	
-0.0769043	0.0447266	0.0523158	
-0.0140381	0.0446106	0.0523158	
0.0140381	0.0447083	0.0523158	
0.0378418	0.0449341	0.0523158	
-0.0390625	0.0449036	0.0523158	
-0.0921631	0.0452515	0.0523158	
0.0427246	0.0451355	0.0523158	
0.0665283	0.0450867	0.0523158	
-0.111084	0.0453918	0.0523158	
0.0134277	0.0454407	0.0523158	
0.078125	0.0459717	0.0523158	
0.00488281	0.0457336	0.0697545	
0.0756836	0.0458679	0.0697545	
-0.0335693	0.0460327	0.0697545	
0.0146484	0.0458984	0.0697545	
0.107422	0.0456909	0.0697545	
-0.0390625	0.0455444	0.0697545	
-0.0292969	0.0455078	0.0697545	
0.00854492	0.0448364	0.0523158	
-0.0262451	0.0450989	0.0523158	
0.03479	0.0446228	0.0523158	
-0.0549316	0.044281	0.0523158	
-0.0366211	0.0442261	0.0523158	
0.0756836	0.0439758	0.0523158	
0.0421143	0.0438232	0.0697545	
-0.055542	0.0438416	0.0697545	
0.055542	0.0440796	0.0697545	
0.0482178	0.0444824	0.0697545	
0.0482178	0.044519	0.0697545	
0.0158691	0.0445862	0.0697545	
-0.0695801	0.0447876	0.0697545	
0.0299072	0.0445618	0.0871931	
0.0762939	0.0448547	0.0871931	
-0.101929	0.0446228	0.0871931	
0.0457764	0.0448303	0.0871931	
0.0732422	0.0450378	0.0871931	
0.0653076	0.0453979	0.0871931	
0.0909424	0.0461121	0.0871931	
-0.0537109	0.045874	0.0871931	
0.0341797	0.0461426	0.0871931	
0.154419	0.0467041	0.0871931	
-0.0738525	0.0470642	0.0871931	
-0.0708008	0.0474548	0.0871931	
-0.0292969	0.0473999	0.0871931	
-0.078125	0.0481628	0.0871931	
0	0.0473816	0.0871931	
-0.10498	0.0478882	0.0871931	
-0.0610352	0.0484192	0.0871931	
0.0622559	0.0480835	0.0871931	
0.0146484	0.0477966	0.0871931	
-0.00793457	0.0474243	0.0871931	
0.0524902	0.0475952	0.0871931	
0.0646973	0.0480408	0.0871931	
0.00793457	0.0479126	0.0871931	
0.0115967	0.0480042	0.0871931	
-0.0317383	0.0475525	0.0871931	
0.0341797	0.0478088	0.0871931	
0.0720215	0.0478027	0.0871931	
-0.126953	0.0480347	0.0697545	
-0.0427246	0.0484314	0.0871931	
0.0408936	0.0485413	0.0871931	
0.0170898	0.0482971	0.0871931	
0.0415039	0.0482727	0.0871931	
-0.0695801	0.0482605	0.0871931	
0.0128174	0.0482117	0.0871931	
0.125732	0.0483398	0.0871931	
0.0164795	0.0483337	0.0871931	
-0.00427246	0.0480713	0.104632	
0.0238037	0.048114	0.104632	
0.0158691	0.0481995	0.104632	
0.0976563	0.048468	0.104632	
-0.0592041	0.048407	0.104632	
-0.0323486	0.0485046	0.104632	
0.0598145	0.0484985	0.104632	
0.022583	0.0485046	0.104632	
-0.0665283	0.0485107	0.104632	
0.00549316	0.0482239	0.104632	
0.0292969	0.0483826	0.104632	
0.0439453	0.0482849	0.0871931	
0.0213623	0.0484131	0.0871931	
-0.0604248	0.0484985	0.0871931	
0.0262451	0.0484619	0.0871931	
0.107422	0.0486084	0.0871931	
-0.0500488	0.0484741	0.0871931	
0.00244141	0.0484253	0.0871931	
0.0274658	0.0481018	0.0871931	
0.0158691	0.0480713	0.0871931	
0.0457764	0.0480042	0.0871931	
-0.088501	0.0486084	0.0871931	
0.00671387	0.0486084	0.0871931	
0.0939941	0.0485962	0.0871931	
-0.0335693	0.0488281	0.0871931	
-0.0665283	0.0490906	0.0871931	
0.0170898	0.0489014	0.0871931	
-0.0231934	0.0491272	0.0871931	
0.0756836	0.0489014	0.0871931	
-0.0738525	0.0489746	0.0871931	
-0.0195313	0.0489563	0.0871931	
0.0708008	0.0490234	0.0871931	
0.0457764	0.0489258	0.0871931	
-0.0653076	0.0488098	0.0871931	
0.0268555	0.048938	0.0871931	
0.0292969	0.0490906	0.0871931	
0.022583	0.048938	0.0871931	
-0.012207	0.0486694	0.0871931	
-0.0549316	0.0482971	0.0871931	
0.0378418	0.0482483	0.0871931	
0.0799561	0.0483826	0.0697545	
-0.0744629	0.0480164	0.0697545	
0.0256348	0.0481384	0.0697545	
0.0860596	0.0482178	0.0697545	
0.0402832	0.0485718	0.0697545	
0.0537109	0.0483521	0.0697545	
-0.0622559	0.0486389	0.0697545	
0.00732422	0.0485657	0.0697545	
0.134277	0.0488342	0.0697545	
-0.0360107	0.0488037	0.0697545	
-0.0897217	0.049408	0.0697545	
0.00366211	0.0493591	0.0697545	
0.00915527	0.0491882	0.0697545	
0.0494385	0.0493347	0.0697545	
-0.0817871	0.0496033	0.0697545	
-0.0012207	0.0492493	0.0697545	
0.0805664	0.0492981	0.0697545	
0.0408936	0.0492859	0.0697545	
-0.0744629	0.0494751	0.0697545	
0.0469971	0.0493896	0.0697545	
0.032959	0.0492371	0.0697545	
0.0183105	0.048938	0.0697545	
0.012207	0.0489014	0.0697545	
-0.0292969	0.0484985	0.0697545	
0.0561523	0.048761	0.0697545	
0.0714111	0.0487122	0.0697545	
-0.088501	0.0485779	0.0697545	
0.00854492	0.0482056	0.0697545	
0.0634766	0.0481079	0.0697545	
-0.0286865	0.0477417	0.0697545	
0.0372314	0.0472046	0.0697545	
-0.0775146	0.0474426	0.0697545	
-0.0274658	0.0473755	0.0697545	
0.0970459	0.0468018	0.0697545	
-0.0213623	0.0462769	0.0697545	
-0.0531006	0.0460999	0.0697545	
0.0256348	0.0460632	0.0697545	
-0.00671387	0.0453491	0.0697545	
0.0744629	0.0460937	0.0697545	
-0.0622559	0.0456665	0.0697545	
-0.0427246	0.0454834	0.0697545	
0.0671387	0.0455322	0.0697545	
0.0653076	0.0460388	0.0697545	
-0.0744629	0.0467041	0.0697545	
0.0402832	0.046582	0.0697545	
0.022583	0.0461609	0.0697545	
0.057373	0.0466553	0.0697545	
0.00183105	0.0465576	0.0871931	
-0.0708008	0.0469482	0.0871931	
0.0152588	0.046759	0.0697545	
0.0848389	0.0468872	0.0697545	
-0.0726318	0.046344	0.0697545	
-0.0012207	0.045929	0.0697545	
0.0494385	0.0460144	0.0697545	
0.0262451	0.046106	0.0697545	
0.0567627	0.0462585	0.0697545	
-0.0439453	0.0460022	0.0697545	
0.0164795	0.0460388	0.0697545	
0.12207	0.0460022	0.0697545	
0	0.0458374	0.0697545	
-0.0439453	0.0462341	0.0697545	
0.020752	0.0462036	0.0697545	
-0.0158691	0.0462036	0.0697545	
0.0640869	0.0458679	0.0697545	
-0.0689697	0.0459656	0.0697545	
-0.055542	0.0461975	0.0697545	
0.0616455	0.0462158	0.0697545	
0.0524902	0.0465149	0.0697545	
-0.0933838	0.0467834	0.0697545	
0.00549316	0.0467834	0.0697545	
0.0219727	0.0467102	0.0697545	
0.0268555	0.0465393	0.0697545	
0.00671387	0.0463928	0.0697545	
-0.0628662	0.0464172	0.0697545	
0.0299072	0.0464539	0.0697545	
0.0769043	0.0461487	0.0697545	
-0.0689697	0.0463379	0.0697545	
-0.0231934	0.0465454	0.0697545	
0.0531006	0.0468018	0.0697545	
0.0170898	0.046814	0.0697545	
0.0860596	0.0472168	0.0697545	
-0.0378418	0.0467102	0.0697545	
0.0158691	0.0468018	0.0697545	
0.117798	0.0470398	0.0697545	
0.0311279	0.0470154	0.0697545	
0.0012207	0.0463623	0.0697545	
0.0585938	0.0467773	0.0697545	
0	0.0465454	0.0697545	
0.057373	0.0463623	0.0697545	
-0.0616455	0.0462402	0.0697545	
-0.0512695	0.0465576	0.0697545	
0.0640869	0.0464905	0.0697545	
0.0469971	0.0465027	0.0697545	
-0.115967	0.0470093	0.0697545	
0.012207	0.0468628	0.0697545	
0.00427246	0.0466125	0.0697545	
0.0274658	0.0466614	0.0697545	
0.022583	0.0467651	0.0697545	
-0.0762939	0.0469788	0.0697545	
0.03479	0.0469482	0.0697545	
0.125122	0.0473999	0.0523158	
-0.0830078	0.0474854	0.0523158	
-0.0292969	0.047522	0.0523158	
0.0305176	0.0469666	0.0523158	
0.0140381	0.0467041	0.0523158	
0.0634766	0.0468018	0.0523158	
-0.119629	0.0473755	0.0523158	
-0.020752	0.0475098	0.0523158	
0.0805664	0.0469727	0.0523158	
-0.0262451	0.046875	0.0697545	
-0.020752	0.0461853	0.0697545	
0.0408936	0.0465576	0.0697545	
0.0183105	0.0466492	0.0697545	
0.10376	0.0471924	0.0697545	
-0.0250244	0.0466248	0.0697545	
-0.010376	0.0467163	0.0697545	
0.0549316	0.04646	0.0697545	
0.0854492	0.0469055	0.0697545	
-0.0909424	0.0470703	0.0697545	
0.0177002	0.0467773	0.0697545	
0.0311279	0.046759	0.0697545	
0.00366211	0.0466125	0.0697545	
-0.010376	0.0465942	0.0697545	
-0.0701904	0.0470032	0.0697545	
0.0488281	0.0469299	0.0697545	
0.113525	0.0473511	0.0697545	
-0.0860596	0.0473267	0.0697545	
0.0158691	0.0473999	0.0697545	
0.0805664	0.0475708	0.0697545	
0.0512695	0.0477966	0.0697545	
0.0390625	0.0478149	0.0697545	
-0.0616455	0.0476562	0.0697545	
0.00488281	0.0474304	0.0697545	
0.0958252	0.0474182	0.0697545	
0.00671387	0.0472717	0.0697545	
-0.0738525	0.0474792	0.0697545	
-0.0305176	0.0475281	0.0697545	
-0.020752	0.0476685	0.0697545	
0.0689697	0.0476135	0.0697545	
-0.043335	0.0474243	0.0697545	
-0.0640869	0.0476379	0.0697545	
0.0762939	0.0477295	0.0697545	
0.057373	0.0476501	0.0697545	
-0.111694	0.0480225	0.0697545	
0.0567627	0.0481873	0.0697545	
0.0421143	0.0483826	0.0697545	
0.0311279	0.0481201	0.0697545	
0.0115967	0.0482178	0.0697545	
-0.0738525	0.0482483	0.0697545	
0.0268555	0.0483643	0.0697545	
0.0726318	0.0482422	0.0697545	
-0.0701904	0.0482178	0.0697545	
-0.0164795	0.0483704	0.0697545	
0.0317383	0.0481934	0.0697545	
0.00610352	0.0479919	0.0697545	
0.0531006	0.0479553	0.0697545	
-0.0445557	0.0479614	0.0697545	
0.0317383	0.048114	0.0697545	
0.0854492	0.0477478	0.0697545	
0.0183105	0.0479309	0.0697545	
-0.0201416	0.0476929	0.0697545	
0.0421143	0.0479065	0.0697545	
0.0012207	0.04776	0.0697545	
0.0524902	0.047644	0.0697545	
-0.0457764	0.0474121	0.0697545	
-0.0439453	0.0472961	0.0697545	
0.0915527	0.0475952	0.0697545	
0.0598145	0.0476685	0.0697545	
-0.0524902	0.0472595	0.0697545	
0.010376	0.0473083	0.0697545	
0.0402832	0.0474915	0.0697545	
0.0335693	0.0475586	0.0697545	
-0.00793457	0.0475708	0.0697545	
-0.0616455	0.0475586	0.0697545	
0.00854492	0.047345	0.0697545	
0.0640869	0.0472168	0.0697545	
-0.0970459	0.0474976	0.0697545	
-0.0219727	0.0474854	0.0697545	
0.0665283	0.0476196	0.0697545	
-0.055542	0.0480042	0.0523158	
0.0823975	0.0479675	0.0523158	
-0.0604248	0.0481934	0.0523158	
0	0.0480347	0.0523158	
0.0994873	0.0478516	0.0697545	
0.0140381	0.0476807	0.0697545	
-0.0323486	0.0479919	0.0697545	
0.0244141	0.0476501	0.0697545	
0.00549316	0.0477051	0.0697545	
0.0689697	0.047821	0.0697545	
-0.0848389	0.048053	0.0697545	
-0.0280762	0.047821	0.0523158	
0.0482178	0.0476624	0.0523158	
0.0518799	0.0477112	0.0523158	
-0.0830078	0.0473816	0.0523158	
0.0244141	0.0475037	0.0523158	
0.0567627	0.0480286	0.0523158	
0.022583	0.0479797	0.0523158	
0.0427246	0.0481812	0.0523158	
-0.0769043	0.0481873	0.0523158	
0.0402832	0.0482422	0.0523158	
0.0836182	0.0478271	0.0523158	
-0.0897217	0.0478943	0.0523158	
-0.0219727	0.047821	0.0523158	
0.0341797	0.0478577	0.0523158	
-0.0170898	0.0478882	0.0523158	
0.0836182	0.0480896	0.0523158	
-0.0543213	0.0474365	0.0523158	
0.0012207	0.0472412	0.0523158	
0.130005	0.0477356	0.0523158	
0.0341797	0.0478149	0.0523158	
0.00915527	0.047699	0.0523158	
0.0360107	0.0476501	0.0523158	
-0.00427246	0.0475098	0.0523158	
0.0341797	0.046814	0.0697545	
-0.043335	0.0469971	0.0697545	
-0.032959	0.0472229	0.0697545	
0.0469971	0.0471436	0.0697545	
0.0695801	0.0469849	0.0697545	
-0.0793457	0.0468689	0.0697545	
0.00671387	0.046759	0.0697545	
0.0323486	0.0467712	0.0523158	
0.0610352	0.047345	0.0523158	
0.0482178	0.0477234	0.0523158	
-0.0787354	0.0478088	0.0523158	
-0.03479	0.0476685	0.0523158	
0.0946045	0.0474792	0.0523158	
-0.10376	0.0476562	0.0523158	
-0.043335	0.0479309	0.0523158	
0.0378418	0.0475037	0.0523158	
-0.0115967	0.0471069	0.0523158	
0.0701904	0.0474182	0.0523158	
-0.0756836	0.0475586	0.0523158	
0.0109863	0.0476196	0.0523158	
0.117798	0.0478394	0.0523158	
0.00854492	0.0478577	0.0523158	
-0.0177002	0.0472961	0.0697545	
0.022583	0.0472168	0.0697545	
-0.0183105	0.0471924	0.0523158	
0.0482178	0.0469849	0.0523158	
-0.057373	0.0471252	0.0523158	
-0.0354004	0.0468384	0.0523158	
0.0585938	0.0466614	0.0523158	
0.0543213	0.0466309	0.0523158	
-0.0775146	0.0462891	0.0523158	
0.0384521	0.046106	0.0523158	
0.0738525	0.0464233	0.0523158	
0.0457764	0.0465698	0.0523158	
0.0128174	0.046582	0.0523158	
-0.0726318	0.0465698	0.0697545	
0.0158691	0.04646	0.0697545	
0.10376	0.0467712	0.0697545	
-0.0939941	0.0470093	0.0697545	
-0.0531006	0.0473755	0.0697545	
0.0402832	0.0474609	0.0697545	
0.000610352	0.047406	0.0697545	
0.0970459	0.0478455	0.0523158	
-0.0787354	0.0481873	0.0523158	
0.0128174	0.047998	0.0523158	
0.134277	0.0484863	0.0523158	
0.0244141	0.0485474	0.0523158	
-0.0311279	0.0486572	0.0523158	
0.0292969	0.0485291	0.0523158	
0.0274658	0.0487915	0.0523158	
0.03479	0.0486145	0.0523158	
-0.0512695	0.0486694	0.0523158	
-0.055542	0.0487854	0.0523158	
0.0317383	0.0481873	0.0523158	
0.0537109	0.0481262	0.0697545	
-0.0811768	0.0484131	0.0697545	
0.0128174	0.0484375	0.0697545	
0.0366211	0.0484009	0.0697545	
0.0378418	0.0484436	0.0697545	
0.0372314	0.0487366	0.0697545	
-0.0177002	0.0482971	0.0697545	
0.0152588	0.0483643	0.0697545	
0.107422	0.0487976	0.0697545	
-0.0537109	0.0483643	0.0697545	
-0.0219727	0.0483643	0.0697545	
0.0469971	0.0481689	0.0697545	
-0.0115967	0.0477295	0.0697545	
0.0738525	0.047644	0.0697545	
-0.032959	0.0473694	0.0697545	
0.000610352	0.0473755	0.0697545	
0.129395	0.0476746	0.0697545	
0.0384521	0.0479187	0.0697545	
-0.0531006	0.0481262	0.0523158	
0.045166	0.0483337	0.0523158	
0.0360107	0.0486389	0.0523158	
0.0640869	0.0485901	0.0523158	
-0.0750732	0.0484924	0.0523158	
-0.0262451	0.0484741	0.0523158	
0.0476074	0.048468	0.0523158	
0.0640869	0.0485901	0.0523158	
-0.0915527	0.0486755	0.0523158	
0.00854492	0.0485168	0.0523158	
0.0561523	0.0485107	0.0523158	
0.0744629	0.0490295	0.0523158	
0.0518799	0.0491211	0.0523158	
-0.0823975	0.049176	0.0523158	
-0.00793457	0.0488525	0.0523158	
0.10376	0.049054	0.0523158	
0.00244141	0.0481812	0.0697545	
0.00976563	0.0480591	0.0697545	
0.0170898	0.0478882	0.0697545	
-0.00610352	0.0477783	0.0697545	
0.0561523	0.0475037	0.0523158	
-0.0445557	0.047406	0.0523158	
0.0604248	0.047998	0.0523158	
0.0683594	0.0473816	0.0523158	
0.000610352	0.0470459	0.0523158	
-0.0244141	0.0471985	0.0523158	
-0.0115967	0.0469543	0.0523158	
-0.0689697	0.0476013	0.0523158	
0.0311279	0.0475708	0.0523158	
-0.0860596	0.047998	0.0523158	
-0.112305	0.0487915	0.0523158	
-0.00305176	0.0483521	0.0523158	
0.03479	0.0480042	0.0523158	
-0.108643	0.0482971	0.0523158	
0.0177002	0.048407	0.0523158	
0.043335	0.0485168	0.0523158	
0.0750732	0.0486572	0.0523158	
0.0701904	0.048877	0.0523158	
-0.0427246	0.0485168	0.0523158	
0.010376	0.0482727	0.0523158	
0.109863	0.0484253	0.0523158	
-0.065918	0.0480469	0.0523158	
-0.0280762	0.0478943	0.0523158	
0.0299072	0.0478149	0.0523158	
-0.0384521	0.0480835	0.0697545	
0.0762939	0.0481445	0.0697545	
-0.0726318	0.048114	0.0697545	
-0.00488281	0.048053	0.0697545	
0.135498	0.04823	0.0697545	
0.0366211	0.0485107	0.0697545	
-0.045166	0.0487854	0.0523158	
0.0238037	0.0487976	0.0523158	
-0.00610352	0.0486755	0.0523158	
0.0756836	0.0489502	0.0523158	
-0.0744629	0.0491211	0.0523158	
-0.0762939	0.04953	0.0523158	
0.0476074	0.0494202	0.0523158	
0.0708008	0.049585	0.0523158	
-0.0848389	0.0496582	0.0523158	
0.03479	0.0496216	0.0523158	
0.0268555	0.0491516	0.0523158	
0.0372314	0.0490662	0.0697545	
0.0109863	0.0490479	0.0697545	
-0.0427246	0.0487488	0.0697545	
0.0170898	0.048761	0.0697545	
0.065918	0.0483826	0.0697545	
-0.065918	0.0481018	0.0697545	
-0.0354004	0.0479248	0.0523158	
0.0219727	0.0477417	0.0523158	
-0.032959	0.0480652	0.0523158	
0.0958252	0.048053	0.0523158	
-0.0561523	0.0478271	0.0523158	
0.0146484	0.0478455	0.0523158	
0.124512	0.0477478	0.0697545	
0.0787354	0.048291	0.0697545	
0.0231934	0.0482117	0.0697545	
0.0787354	0.0487061	0.0697545	
0.0354004	0.0487854	0.0697545	
0.0238037	0.0486755	0.0697545	
-0.0604248	0.0487671	0.0697545	
-0.0592041	0.0488037	0.0697545	
-0.0183105	0.0486694	0.0871931	
0.0244141	0.0483765	0.0871931	
-0.179443	0.0493591	0.0871931	
0.00183105	0.0492493	0.0871931	
0.057373	0.0494568	0.0871931	
0.108032	0.0501587	0.0871931	
0.137939	0.0511658	0.0871931	
0.0268555	0.0512573	0.0871931	
0.110474	0.0522095	0.0871931	
0.186768	0.0530029	0.0871931	
-0.00244141	0.0524902	0.104632	
0.0250244	0.0525208	0.104632	
-0.022583	0.0522766	0.104632	
-0.0970459	0.0531311	0.104632	
0.00854492	0.052478	0.104632	
-0.154419	0.0536926	0.12207	
-0.118408	0.0548706	0.12207	
0.0195313	0.053772	0.12207	
0.00976563	0.0534851	0.12207	
-0.0183105	0.0531372	0.139509	
0.045166	0.0531372	0.139509	
0.0628662	0.0534058	0.139509	
0.119019	0.0539551	0.156948	
-0.0299072	0.0535034	0.156948	
-0.0323486	0.0535645	0.156948	
0.0476074	0.0535645	0.156948	
0.0415039	0.0533386	0.174386	
-0.171509	0.0541382	0.174386	
-0.0585938	0.0546387	0.174386	
-0.0213623	0.0542908	0.174386	
-0.00854492	0.0536316	0.191825	
0.0732422	0.0538452	0.191825	
-0.0726318	0.0537476	0.209263	
0.0585938	0.0542542	0.209263	
0.137329	0.0545898	0.226702	
-0.125122	0.0558167	0.226702	
-0.0140381	0.0558594	0.226702	
0.0323486	0.056012	0.244141	
-0.0970459	0.0569214	0.244141	
-0.0134277	0.0564941	0.261579	
-0.0817871	0.0568665	0.261579	
-0.0445557	0.0567078	0.261579	
0.0494385	0.0565186	0.261579	
0.0390625	0.0569031	0.261579	
0	0.0566589	0.279018	
0.078125	0.0573242	0.279018	
0.0592041	0.0572266	0.279018	
0.0445557	0.0573608	0.279018	
0.0292969	0.0567932	0.279018	
-0.0567627	0.0562378	0.279018	
0.0683594	0.0568909	0.296456	
0.153198	0.058075	0.296456	
-0.0323486	0.057312	0.296456	
0.0860596	0.0579956	0.296456	
0.0793457	0.0583557	0.296456	
0.0579834	0.0581848	0.313895	
0.133667	0.0588196	0.313895	
0.0439453	0.0588318	0.313895	
0.000610352	0.0587341	0.313895	
0.0567627	0.0582031	0.313895	
-0.116577	0.0587097	0.313895	
-0.0787354	0.0592163	0.331334	
-0.0714111	0.0596313	0.331334	
-0.12146	0.0604614	0.348772	
-0.0231934	0.0599304	0.348772	
-0.130615	0.0605103	0.366211	
-0.111084	0.0615723	0.366211	
0.0689697	0.060907	0.38365	
0.0799561	0.0613403	0.38365	
0.0195313	0.061084	0.401088	
0.118408	0.06203	0.401088	
0.00671387	0.0620361	0.418527	
0.0543213	0.0618225	0.418527	
0.00793457	0.0611572	0.435965	
-0.0982666	0.061377	0.435965	
-0.0250244	0.0611511	0.453404	
-0.020752	0.0606506	0.453404	
-0.195923	0.0617615	0.470843	
-0.0463867	0.0618774	0.470843	
0.0427246	0.0620361	0.488281	
0.133057	0.0629944	0.488281	
0.141602	0.0643005	0.50572	
0.088501	0.0647583	0.50572	
0.0823975	0.0654114	0.523158	
0.0537109	0.0652893	0.540597	
-0.00427246	0.0646729	0.540597	
-0.0482178	0.064801	0.558036	
-0.0201416	0.0647827	0.558036	
-0.162354	0.0660767	0.575474	
-0.0701904	0.0658203	0.575474	
-0.161743	0.0668762	0.592913	
-0.0891113	0.0676208	0.592913	
0.0823975	0.0671997	0.592913	
0.0799561	0.0672119	0.610352	
0.0445557	0.0674255	0.610352	
0.128174	0.0679199	0.610352	
0.118408	0.06875	0.62779	
0.078125	0.0692932	0.62779	
0.0396729	0.0690857	0.62779	
-0.0115967	0.0686096	0.645229	
0.010376	0.0685303	0.645229	
0.0274658	0.0685608	0.662667	
-0.141602	0.0681824	0.662667	
-0.045166	0.0686157	0.680106	
0.00976563	0.0681396	0.680106	
-0.0170898	0.0672302	0.680106	
0.0506592	0.0663574	0.680106	
0.0213623	0.0663025	0.697545	
0.143433	0.0666321	0.697545	
0.200195	0.0667664	0.697545	
-0.00793457	0.0668213	0.714983	
-0.0445557	0.0670166	0.714983	
0.0708008	0.0674988	0.732422	
-0.108032	0.0676086	0.732422	
-0.0280762	0.067804	0.74986	
-0.180054	0.0680603	0.767299	
-0.15564	0.0684326	0.767299	
-0.0476074	0.0687134	0.784738	
-0.0518799	0.0691345	0.802176	
-0.0115967	0.0690674	0.819615	
0.162964	0.0702454	0.819615	
0.120239	0.0708191	0.837054	
0.0921631	0.0705505	0.837054	
-0.03479	0.0705994	0.854492	
-0.0476074	0.070752	0.854492	
0.0982666	0.0712585	0.871931	
-0.000610352	0.0708496	0.871931	
-0.210571	0.0712402	0.871931	
-0.122681	0.0718811	0.889369	
-0.0671387	0.0723389	0.889369	
-0.0549316	0.0728027	0.889369	
0.0500488	0.0725708	0.906808	
-0.0195313	0.0720398	0.906808	
0.0872803	0.0723267	0.924247	
0.20813	0.0730347	0.924247	
0.0439453	0.0722229	0.924247	
0.0292969	0.0723755	0.941685	
0.0646973	0.072699	0.941685	
0.0195313	0.0719238	0.959124	
0.0421143	0.0722107	0.976563	
-0.118408	0.0725769	0.994001	
-0.0872803	0.0730042	1.01144	
0.0292969	0.0728027	1.02888	
-0.0305176	0.0727173	1.04632	
-0.0744629	0.0734619	1.06376	
0.0665283	0.0733459	1.08119	
0.10498	0.0738037	1.08119	
0.0994873	0.074353	1.09863	
0.154419	0.0756042	1.11607	
0.0512695	0.0755493	1.11607	
0.0695801	0.0755615	1.13351	
0.0787354	0.0748169	1.13351	
-0.112305	0.0756165	1.13351	
0	0.0747559	1.15095	
-0.0738525	0.0747009	1.15095	
-0.122681	0.0753479	1.15095	
-0.0878906	0.0748901	1.16839	
-0.150146	0.0759521	1.16839	
-0.0671387	0.0766174	1.18583	
0.0878906	0.0769287	1.18583	
-0.0457764	0.0762207	1.20326	
-0.0146484	0.0755798	1.2207	
0.0506592	0.0753723	1.2207	
-0.0256348	0.0744141	1.2207	
0.0952148	0.0751343	1.23814	
-0.0488281	0.0743164	1.23814	
-0.0421143	0.0736267	1.23814	
0.078125	0.0737183	1.23814	
0.0952148	0.0738708	1.23814	
-0.0897217	0.0745728	1.25558	
0.0592041	0.0739807	1.25558	
0.108032	0.0749939	1.25558	
0.159912	0.0760498	1.25558	
0.0891113	0.0768616	1.25558	
0.127563	0.0771545	1.25558	
0.149536	0.0783997	1.25558	
0.0775146	0.0789673	1.25558	
-0.0402832	0.0774109	1.27302	
0.020752	0.0771545	1.27302	
0.0152588	0.0768799	1.27302	
-0.0811768	0.0763611	1.27302	
-0.0994873	0.0759399	1.27302	
-0.194702	0.077002	1.27302	
-0.0250244	0.0764282	1.27302	
0.0976563	0.0768677	1.27302	
-0.0164795	0.0769897	1.27302	
-0.00244141	0.076532	1.27302	
0.0860596	0.0771912	1.27302	
0.0012207	0.0755798	1.27302	
0.134888	0.0762268	1.27302	
-0.0585938	0.0751953	1.27302	
-0.0756836	0.075061	1.27302	
0.0323486	0.0745605	1.27302	
-0.0494385	0.0742554	1.27302	
-0.140991	0.0752197	1.27302	
0.0421143	0.0743591	1.29046	
0.170288	0.0748779	1.29046	
0.249634	0.076593	1.29046	
0.212402	0.0783203	1.3079	
0.136719	0.0795715	1.3079	
0.137329	0.0808411	1.32533	
0.150146	0.0820679	1.32533	
-0.0201416	0.0808533	1.34277	
-0.0189209	0.0805908	1.34277	
-0.131226	0.0818054	1.34277	
-0.255737	0.0841919	1.36021	
-0.223389	0.0859192	1.36021	
-0.263062	0.0883362	1.36021	
-0.12085	0.0881104	1.37765	
0.0830078	0.0869385	1.39509	
-0.0439453	0.0872986	1.39509	
-0.00854492	0.0869385	1.41253	
0.0396729	0.0866272	1.42997	
-0.00305176	0.0855774	1.44741	
0.0939941	0.0862366	1.46484	
-0.127563	0.0857117	1.46484	
-0.0927734	0.085083	1.48228	
0.000610352	0.084613	1.49972	
-0.0177002	0.0842712	1.51716	
-0.15625	0.0857178	1.51716	
-0.0439453	0.0845276	1.5346	
0.0128174	0.0834534	1.5346	
0.0549316	0.0830811	1.55204	
0.0109863	0.082843	1.55204	
-0.0476074	0.082843	1.56948	
0.0958252	0.0828186	1.56948	
0.102539	0.0838379	1.56948	
-0.0830078	0.0825623	1.56948	
0.032959	0.081665	1.58691	
0.0769043	0.0817627	1.58691	
0.0280762	0.0814941	1.58691	
0.0927734	0.0819214	1.58691	
-0.0366211	0.0820923	1.58691	
0.0152588	0.0813721	1.60435	
0.147095	0.0807617	1.60435	
0.0238037	0.0805603	1.60435	
-0.0146484	0.0804138	1.60435	
0.0579834	0.0803467	1.60435	
0.0653076	0.0808044	1.60435	
0.192261	0.0823059	1.60435	
0.0152588	0.0812744	1.60435	
0.0628662	0.0810303	1.60435	
0.128174	0.082019	1.60435	
0.172729	0.0834412	1.60435	
0.148926	0.0841858	1.60435	
0.12207	0.0847412	1.60435	
0.134888	0.0850403	1.60435	
0.0354004	0.0843994	1.60435	
-0.0494385	0.0833496	1.58691	
-0.134888	0.0841858	1.58691	
0.160522	0.0850952	1.58691	
0.0421143	0.084729	1.58691	
0.012207	0.083728	1.58691	
-0.032959	0.0840576	1.58691	
-0.114746	0.0844666	1.58691	
-0.0305176	0.0835449	1.58691	
-0.0354004	0.08302	1.58691	
-0.151978	0.0830383	1.58691	
-0.109863	0.0834656	1.60435	
-0.111084	0.0836975	1.60435	
-0.291138	0.0861511	1.62179	
-0.224609	0.0882507	1.63923	
-0.103149	0.0887756	1.65667	
-0.112305	0.0896423	1.67411	
0.0152588	0.0888428	1.69155	
-0.0506592	0.0888611	1.70898	
-0.0494385	0.0889343	1.74386	
0.0976563	0.0891296	1.77874	
0.0134277	0.0883118	1.79618	
-0.0939941	0.0883545	1.83105	
0.045166	0.0882141	1.86593	
0.043335	0.0875671	1.88337	
0.0512695	0.0864807	1.91825	
-0.00244141	0.085614	1.93569	
-0.0384521	0.0847229	1.95313	
0.111694	0.0843445	1.97056	
0.197144	0.0855408	1.988	
-0.0366211	0.0855042	1.988	
0.0909424	0.0862061	2.00544	
0.0982666	0.0870361	2.02288	
0.0177002	0.0864014	2.02288	
0.055542	0.0859619	2.04032	
-0.0170898	0.0841858	2.04032	
0.112915	0.0850647	2.04032	
0.352783	0.087616	2.05776	
0.323486	0.090686	2.05776	
0.235596	0.0930176	2.05776	
0.275269	0.0949097	2.05776	
0.088501	0.0957825	2.05776	
0.279541	0.097229	2.05776	
-0.12085	0.0978516	2.05776	
-0.233765	0.0994324	2.05776	
0.0158691	0.0992676	2.05776	
0.0134277	0.0989075	2.05776	
-0.152588	0.0990234	2.0752	
-0.0140381	0.0987427	2.09263	
0.0323486	0.0973633	2.09263	
0.00854492	0.0949524	2.12751	
0.0335693	0.0931641	2.14495	
-0.0958252	0.0927551	2.16239	
-0.0402832	0.0917847	2.19727	
-0.209961	0.0923828	2.2147	
-0.46814	0.0968628	2.24958	
-0.337524	0.100049	2.28446	
-0.256958	0.101306	2.31934	
-0.0341797	0.0990906	2.35421	
0.0701904	0.0975586	2.40653	
-0.15686	0.0964966	2.44141	
-0.17334	0.0970215	2.47628	
0.123901	0.0974304	2.5286	
0.0109863	0.0971008	2.56348	
-0.163574	0.0986511	2.59835	
-0.0762939	0.0990173	2.65067	
-0.0939941	0.0999268	2.66811	
-0.00549316	0.0990417	2.70299	
-0.0640869	0.098407	2.73786	
-0.0109863	0.0975891	2.7553	
0.0872803	0.0984558	2.79018	
0.065918	0.098938	2.80762	
-0.0152588	0.0975281	2.82506	
0.0793457	0.0978821	2.84249	
0.0610352	0.0983643	2.85993	
0.0750732	0.0985657	2.87737	
0.0567627	0.0990234	2.89481	
-0.00732422	0.0986206	2.91225	
0.0830078	0.0984924	2.91225	
0.170288	0.0991699	2.92969	
0.0646973	0.0989868	2.92969	
0.0720215	0.0993774	2.92969	
0.15564	0.100165	2.92969	
0.292969	0.102814	2.94713	
0.38208	0.105707	2.94713	
0.257568	0.107916	2.94713	
0.284424	0.110608	2.92969	
0.15625	0.110699	2.92969	
0.202026	0.112482	2.92969	
-0.0280762	0.112616	2.92969	
-0.12207	0.113257	2.92969	
-0.125122	0.113855	2.92969	
0.0976563	0.112909	2.91225	
0.182495	0.114581	2.91225	
0.213623	0.116089	2.91225	
0.335083	0.118158	2.91225	
0.151367	0.117944	2.91225	
0.152588	0.117981	2.92969	
0.132446	0.118085	2.92969	
0.132446	0.11806	2.94713	
-0.238037	0.120087	2.982	
-0.664673	0.126239	3.01688	
-0.784912	0.132739	3.0692	
-0.581665	0.136951	3.12151	
-0.392456	0.140454	3.17383	
-0.493774	0.14527	3.24358	
-0.435791	0.149298	3.33078	
-0.147095	0.149622	3.40053	
-0.0756836	0.150073	3.47028	
0.101318	0.150732	3.54004	
-0.0195313	0.149408	3.60979	
0.0561523	0.148871	3.66211	
0.167236	0.149432	3.73186	
-0.00793457	0.1466	3.78418	
-0.0012207	0.144366	3.8365	
0.0720215	0.144055	3.88881	
0.0250244	0.143182	3.94113	
0.114136	0.144171	3.99344	
-0.0427246	0.144092	4.04576	
0.0128174	0.143726	4.09807	
0.172729	0.144476	4.13295	
0.170898	0.146051	4.16783	
0.0787354	0.145898	4.18527	
0.159302	0.14704	4.22015	
0.281372	0.14942	4.23758	
0.322876	0.152136	4.23758	
0.315552	0.155267	4.25502	
0.22522	0.157135	4.25502	
0.310059	0.159119	4.25502	
0.318604	0.160333	4.25502	
0.246582	0.162433	4.23758	
0.390015	0.165424	4.23758	
0.216064	0.166602	4.23758	
-0.162354	0.168048	4.22015	
-0.0775146	0.168268	4.22015	
-0.324707	0.171344	4.22015	
0.0811768	0.171027	4.22015	
0.144653	0.168945	4.22015	
-0.142822	0.167139	4.22015	
-0.366211	0.168445	4.22015	
-0.0958252	0.16665	4.23758	
-0.0415039	0.16618	4.25502	
0.0250244	0.163635	4.2899	
-0.413208	0.166559	4.32478	
-0.216064	0.166382	4.35965	
-0.215454	0.168378	4.41197	
-0.310059	0.171344	4.46429	
-0.46814	0.1745	4.5166	
-0.281372	0.177173	4.56892	
-0.166626	0.178516	4.62123	
-0.00732422	0.178503	4.69099	
-0.0769043	0.178937	4.7433	
-0.117188	0.17915	4.81306	
0.0384521	0.179132	4.88281	
0.137329	0.178406	4.95257	
-0.0183105	0.173907	5.02232	
0.0189209	0.170721	5.09208	
0.0567627	0.168719	5.16183	
0.0665283	0.169043	5.21415	
0.131226	0.169653	5.2839	
-0.0189209	0.168274	5.33622	
0.0250244	0.166791	5.37109	
0.176392	0.167316	5.38853	
0.108032	0.168286	5.42341	
0.0268555	0.166919	5.42341	
0.111084	0.167267	5.44085	
0.0689697	0.167017	5.44085	
0.175171	0.168713	5.42341	
0.0469971	0.168542	5.42341	
0.0567627	0.169	5.40597	
0.172119	0.169849	5.38853	
0.194092	0.17113	5.37109	
-0.178223	0.17276	5.35366	
-0.0164795	0.172131	5.33622	
0.0915527	0.172437	5.30134	
0.0720215	0.172406	5.26646	
0.0445557	0.172284	5.21415	
-0.0701904	0.172913	5.17927	
0.0305176	0.172388	5.12695	
0.161133	0.172296	5.07464	
-0.0598145	0.172247	5.00488	
0.172729	0.173254	4.95257	
0.235596	0.174054	4.90025	
0.144043	0.172565	4.84794	
0.184326	0.170587	4.81306	
-0.0683594	0.168695	4.77818	
-0.045166	0.166302	4.7433	
-0.0634766	0.165375	4.70843	
-0.0897217	0.164252	4.67355	
-0.0909424	0.16488	4.65611	
-0.12085	0.164868	4.62123	
-0.0494385	0.164111	4.58636	
0.159302	0.164728	4.56892	
0.137939	0.164282	4.53404	
0.0579834	0.162726	4.49916	
-0.00854492	0.15946	4.46429	
0.194092	0.159888	4.42941	
-0.0994873	0.159357	4.41197	
-0.0238037	0.15827	4.37709	
-0.184937	0.158795	4.35965	
-0.233154	0.158746	4.34222	
-0.223389	0.154333	4.32478	
-0.267334	0.149158	4.30734	
-0.0769043	0.14411	4.2899	
0.0408936	0.140594	4.27246	
-0.0494385	0.136151	4.27246	
0.00671387	0.13186	4.27246	
0.0604248	0.130994	4.25502	
0.0518799	0.130756	4.25502	
0.090332	0.130646	4.25502	
-0.00305176	0.130481	4.23758	
0.0195313	0.130115	4.23758	
0.118408	0.129626	4.23758	
0.102539	0.130573	4.23758	
0.0286865	0.130847	4.22015	
0.0708008	0.130835	4.22015	
-0.022583	0.130811	4.20271	
-0.012207	0.129791	4.20271	
-0.0323486	0.129687	4.20271	
-0.065918	0.130219	4.18527	
0.00366211	0.128528	4.18527	
0.0256348	0.127075	4.16783	
-0.123291	0.127521	4.16783	
0.15686	0.127496	4.15039	
0.20752	0.126758	4.13295	
0.240479	0.125934	4.11551	
0.351563	0.126294	4.11551	
0.0866699	0.124908	4.09807	
0.0708008	0.122516	4.08064	
0.186157	0.121191	4.0632	
-0.145874	0.120184	4.04576	
-0.00671387	0.116351	4.02832	
-0.200195	0.116193	4.01088	
-0.3479	0.118048	3.99344	
-0.167236	0.118945	3.99344	
-0.142822	0.117126	3.976	
0.0408936	0.116724	3.976	
0.482178	0.120099	3.976	
0.526733	0.123938	3.95857	
0.466919	0.124945	3.95857	
0.219727	0.126184	3.95857	
0.161743	0.127386	3.94113	
0.184937	0.128986	3.94113	
-0.0982666	0.125836	3.94113	
-0.407104	0.127747	3.94113	
-0.435791	0.12995	3.94113	
-0.481567	0.131665	3.94113	
-0.670166	0.133685	3.94113	
-0.428467	0.135156	3.94113	
-0.217285	0.135663	3.95857	
-0.0543213	0.136133	3.976	
0.0384521	0.135748	3.99344	
-0.03479	0.134924	4.01088	
0.102539	0.135565	4.02832	
0.149536	0.135687	4.0632	
-0.0299072	0.135803	4.08064	
0.0384521	0.135999	4.11551	
0.115967	0.136591	4.13295	
0.0268555	0.136194	4.15039	
0.0592041	0.135474	4.16783	
-0.0280762	0.135565	4.18527	
0.0622559	0.135937	4.20271	
0.151978	0.135693	4.20271	
0.0415039	0.135028	4.22015	
0.0683594	0.135443	4.22015	
0.0872803	0.135205	4.22015	
0.0469971	0.134985	4.22015	
0.158081	0.134814	4.22015	
0.0720215	0.135065	4.22015	
0.120239	0.135699	4.20271	
0.143433	0.135413	4.20271	
0.0872803	0.134344	4.18527	
-0.0415039	0.132977	4.16783	
-0.0012207	0.132825	4.15039	
0.270386	0.134613	4.13295	
0.114136	0.135034	4.11551	
0.00183105	0.134607	4.08064	
-0.244141	0.136346	4.0632	
-0.0195313	0.136237	4.02832	
0.120239	0.135828	4.01088	
-0.0891113	0.136121	3.976	
-0.128174	0.135675	3.95857	
0.0958252	0.134277	3.92369	
0.181885	0.134656	3.90625	
0.211792	0.13493	3.87137	
0.10376	0.135284	3.85393	
-0.17395	0.136572	3.8365	
0.144653	0.137384	3.81906	
0.148315	0.13797	3.80162	
-0.159912	0.13866	3.78418	
-0.299072	0.140442	3.76674	
-0.263672	0.142584	3.7493	
-0.211182	0.143103	3.7493	
-0.183105	0.143555	3.73186	
-0.140381	0.144379	3.73186	
0.127563	0.145569	3.71443	
0.203857	0.145667	3.71443	
0.043335	0.145105	3.69699	
0.153809	0.146405	3.69699	
-0.00488281	0.144604	3.67955	
0.131836	0.143591	3.67955	
0.133057	0.142688	3.67955	
-0.122681	0.141241	3.67955	
-0.0994873	0.141467	3.67955	
-0.0177002	0.141235	3.66211	
-0.181274	0.142554	3.66211	
-0.0579834	0.143066	3.66211	
0.109863	0.143561	3.66211	
0.057373	0.143616	3.66211	
0.114136	0.143854	3.66211	
0.0500488	0.144324	3.64467	
-0.0177002	0.144305	3.64467	
0.147095	0.144592	3.62723	
0.110474	0.144672	3.62723	
-0.12146	0.145599	3.62723	
0.0469971	0.145361	3.60979	
-0.0585938	0.145721	3.60979	
0.00183105	0.145618	3.60979	
0.00671387	0.145361	3.60979	
0.078125	0.145483	3.59235	
0.213623	0.147583	3.59235	
0.222778	0.149554	3.59235	
-0.00488281	0.14837	3.59235	
0.100098	0.147803	3.59235	
0.133667	0.147064	3.57492	
-0.020752	0.144867	3.57492	
-0.0408936	0.14176	3.57492	
-0.152588	0.142419	3.57492	
-0.162964	0.143341	3.57492	
-0.0512695	0.141992	3.55748	
-0.057373	0.141107	3.55748	
0.0787354	0.141827	3.55748	
0.110474	0.14093	3.55748	
0.088501	0.138336	3.55748	
0.0408936	0.137073	3.55748	
-0.00793457	0.135724	3.55748	
0.0604248	0.135919	3.57492	
-0.108643	0.132184	3.57492	
-0.0445557	0.127362	3.57492	
-0.222778	0.124921	3.57492	
-0.154419	0.124268	3.57492	
-0.117798	0.123828	3.57492	
-0.0738525	0.122717	3.57492	
-0.00610352	0.121796	3.57492	
0.271606	0.120441	3.59235	
0.43457	0.120428	3.59235	
0.549316	0.121106	3.59235	
0.144653	0.115851	3.60979	
-0.106201	0.112628	3.60979	
0.131836	0.111774	3.62723	
0.170288	0.112933	3.62723	
-0.161133	0.11416	3.62723	
-0.31311	0.116943	3.64467	
-0.267944	0.118597	3.64467	
-0.167847	0.118781	3.66211	
-0.0817871	0.119299	3.66211	
0.179443	0.120709	3.67955	
0.170898	0.121259	3.69699	
0.150757	0.122498	3.69699	
0.115967	0.123065	3.71443	
-0.0732422	0.123517	3.73186	
-0.0634766	0.123529	3.7493	
-0.055542	0.122565	3.76674	
-0.128174	0.123431	3.78418	
-0.316772	0.125916	3.81906	
-0.294189	0.127985	3.85393	
-0.240479	0.129919	3.87137	
-0.022583	0.128564	3.90625	
-0.0891113	0.128735	3.94113	
-0.146484	0.128998	3.976	
-0.0616455	0.12818	4.02832	
0.0384521	0.127692	4.0632	
-0.116577	0.128442	4.09807	
0.045166	0.128882	4.13295	
0.0933838	0.127112	4.15039	
0.100098	0.126971	4.18527	
0.144043	0.128394	4.22015	
0.0219727	0.126172	4.23758	
0.0793457	0.12677	4.27246	
0.140381	0.126971	4.2899	
-0.0701904	0.126782	4.30734	
0.0195313	0.125696	4.32478	
0.065918	0.125397	4.32478	
0.124512	0.124823	4.34222	
0.325928	0.125964	4.34222	
0.217896	0.127106	4.35965	
0.393677	0.129303	4.35965	
0.252075	0.130377	4.35965	
0.250854	0.131403	4.35965	
0.129395	0.131097	4.34222	
-0.0665283	0.128772	4.34222	
-0.0317383	0.126453	4.34222	
-0.12085	0.125549	4.34222	
-0.374756	0.127466	4.34222	
-0.343018	0.129492	4.34222	
-0.150757	0.129724	4.34222	
0.0769043	0.128455	4.34222	
0.0408936	0.12843	4.34222	
0.0750732	0.127643	4.34222	
0.443115	0.132025	4.34222	
0.427246	0.134979	4.34222	
0.308228	0.136731	4.34222	
-0.0628662	0.136133	4.34222	
-0.088501	0.136023	4.34222	
-0.0140381	0.135986	4.34222	
-0.218506	0.136359	4.34222	
-0.344238	0.139221	4.34222	
-0.447388	0.142596	4.34222	
-0.314941	0.145172	4.34222	
-0.0732422	0.144763	4.35965	
0.0775146	0.145038	4.37709	
0.374146	0.148602	4.39453	
0.446167	0.151593	4.41197	
0.239868	0.152887	4.44685	
0.144043	0.153113	4.46429	
0.000610352	0.152649	4.49916	
0.00366211	0.1521	4.53404	
-0.237427	0.154456	4.56892	
-0.540161	0.15979	4.58636	
-0.53772	0.164386	4.62123	
-0.465088	0.166901	4.65611	
-0.299683	0.16767	4.67355	
-0.307617	0.170697	4.70843	
-0.0427246	0.170123	4.7433	
0.0787354	0.169574	4.77818	
0.0518799	0.169885	4.81306	
0.120239	0.170679	4.84794	
-0.0238037	0.169391	4.88281	
0.0616455	0.168378	4.91769	
0.153198	0.169397	4.95257	
0.0286865	0.16911	5.00488	
0.0665283	0.168988	5.03976	
0.0817871	0.168701	5.07464	
0.0408936	0.168225	5.10951	
0.160522	0.169421	5.12695	
0.000610352	0.169348	5.14439	
0.0469971	0.169214	5.16183	
0.250244	0.17063	5.16183	
0.301514	0.173199	5.17927	
0.159302	0.172565	5.16183	
0.222168	0.173242	5.16183	
0.0952148	0.173016	5.16183	
0.140381	0.173682	5.14439	
0.00732422	0.173694	5.12695	
-0.0286865	0.171265	5.10951	
0.239868	0.169318	5.07464	
0.167847	0.165503	5.0572	
-0.0115967	0.164172	5.02232	
0.0805664	0.163916	5.00488	
0.0952148	0.16355	4.97001	
-0.0305176	0.162152	4.93513	
0.108643	0.161627	4.91769	
-0.214233	0.160638	4.90025	
-0.170288	0.159662	4.88281	
-0.338135	0.161365	4.86537	
-0.337524	0.163922	4.86537	
-0.248413	0.164612	4.84794	
-0.114746	0.16405	4.84794	
-0.0604248	0.163147	4.86537	
0.0933838	0.162921	4.86537	
-0.0604248	0.162793	4.86537	
0.0134277	0.162292	4.86537	
0.165405	0.163391	4.86537	
0.0390625	0.1625	4.86537	
-0.145874	0.160791	4.86537	
-0.0335693	0.158185	4.88281	
-0.119629	0.156976	4.88281	
-0.0189209	0.15694	4.88281	
0.00366211	0.156085	4.90025	
0.114746	0.155768	4.90025	
0.335083	0.158502	4.90025	
0.392456	0.162042	4.91769	
0.0274658	0.161151	4.91769	
0.114136	0.161841	4.93513	
0.0292969	0.1612	4.93513	
0.0836182	0.161035	4.93513	
0	0.159595	4.93513	
-0.238647	0.161761	4.95257	
-0.390015	0.164868	4.93513	
-0.158081	0.165045	4.93513	
-0.196533	0.166309	4.93513	
-0.0982666	0.167096	4.93513	
0.0439453	0.166876	4.93513	
0.118408	0.166815	4.93513	
0.325928	0.166815	4.93513	
0.090332	0.16554	4.93513	
0.0897217	0.1625	4.93513	
0.0793457	0.160773	4.93513	
0.0488281	0.158752	4.93513	
-0.0610352	0.158069	4.93513	
0.0256348	0.15766	4.93513	
-0.0732422	0.158075	4.93513	
-0.126343	0.15813	4.93513	
-0.149536	0.155878	4.93513	
-0.107422	0.153522	4.93513	
0.141602	0.15343	4.91769	
0.26001	0.155261	4.91769	
0.223389	0.157086	4.91769	
0.264893	0.158984	4.90025	
0.210571	0.156659	4.88281	
-0.00427246	0.152429	4.86537	
0.0811768	0.150159	4.86537	
-0.0213623	0.149744	4.84794	
-0.0634766	0.149493	4.8305	
-0.129395	0.150647	4.81306	
-0.338135	0.151843	4.81306	
-0.163574	0.150037	4.81306	
0.132446	0.146887	4.79562	
0.209351	0.145831	4.79562	
0.535889	0.150458	4.79562	
0.264893	0.152332	4.79562	
-0.0970459	0.149561	4.79562	
0.24231	0.147522	4.77818	
0.119019	0.146313	4.77818	
-0.211182	0.146985	4.77818	
-0.297852	0.149957	4.77818	
-0.439453	0.154315	4.77818	
-0.34729	0.155414	4.76074	
-0.354614	0.153558	4.76074	
-0.342407	0.151605	4.76074	
-0.057373	0.147528	4.77818	
0.0537109	0.145068	4.77818	
-0.0372314	0.142365	4.77818	
0.100708	0.142944	4.77818	
0.146484	0.143622	4.79562	
0.057373	0.143677	4.79562	
0.148315	0.143958	4.81306	
-0.00610352	0.143781	4.81306	
-0.0366211	0.14353	4.81306	
0.140991	0.143408	4.81306	
-0.0408936	0.14353	4.8305	
-0.0549316	0.143414	4.8305	
0.0311279	0.142908	4.8305	
-0.0390625	0.142889	4.8305	
0.0866699	0.142151	4.81306	
0.0592041	0.142737	4.81306	
0.131836	0.143585	4.81306	
0.125732	0.14234	4.81306	
0.24231	0.141748	4.81306	
0.162964	0.141785	4.81306	
0.0860596	0.140424	4.79562	
0.154419	0.141016	4.79562	
-0.00793457	0.139691	4.79562	
0.0958252	0.140576	4.77818	
-0.0152588	0.140442	4.77818	
-0.0701904	0.138745	4.76074	
0.0457764	0.137524	4.76074	
-0.13855	0.138794	4.7433	
-0.0909424	0.138898	4.72586	
0.0164795	0.13811	4.72586	
-0.0170898	0.137976	4.70843	
-0.0128174	0.137018	4.70843	
-0.0616455	0.135492	4.69099	
-0.0915527	0.134705	4.69099	
0.0823975	0.132147	4.69099	
0.0518799	0.129291	4.69099	
0	0.126807	4.67355	
-0.00915527	0.125751	4.67355	
-0.0744629	0.125891	4.67355	
-0.0463867	0.125421	4.65611	
-0.0537109	0.125354	4.65611	
0.00244141	0.125244	4.63867	
0.0140381	0.12373	4.62123	
0.00610352	0.123401	4.62123	
-0.131226	0.123254	4.62123	
-0.167236	0.124591	4.60379	
0.00793457	0.123474	4.60379	
0.0445557	0.12373	4.60379	
0.0262451	0.123956	4.60379	
-0.108032	0.123889	4.60379	
-0.0537109	0.121075	4.62123	
0.0671387	0.117822	4.62123	
-0.0994873	0.118542	4.62123	
0.00549316	0.117456	4.62123	
0.0488281	0.117651	4.62123	
0.00366211	0.116852	4.62123	
0.166016	0.118512	4.62123	
0.0805664	0.116931	4.60379	
0.10437	0.114075	4.60379	
0.265503	0.115149	4.60379	
0.0744629	0.113928	4.60379	
-0.0372314	0.113318	4.58636	
0.0195313	0.113074	4.58636	
0.0219727	0.112109	4.58636	
-0.0427246	0.109277	4.56892	
-0.17395	0.110114	4.56892	
-0.0866699	0.110083	4.56892	
0.0543213	0.109833	4.56892	
0.176392	0.111108	4.55148	
0.299072	0.113489	4.55148	
0.199585	0.115228	4.53404	
0.266113	0.117157	4.53404	
0.0799561	0.116693	4.53404	
-0.0341797	0.11554	4.5166	
-0.0488281	0.114954	4.5166	
-0.123291	0.114771	4.5166	
-0.189209	0.114062	4.49916	
-0.15564	0.113385	4.49916	
-0.110474	0.111841	4.49916	
0.0891113	0.110626	4.48172	
0.00244141	0.110608	4.48172	
0.0158691	0.109955	4.48172	
0.0842285	0.110583	4.48172	
0.166016	0.111609	4.48172	
-0.100098	0.111316	4.48172	
-0.245361	0.110388	4.48172	
-0.272827	0.111481	4.49916	
-0.179443	0.111951	4.49916	
-0.186157	0.111719	4.49916	
-0.0390625	0.10675	4.5166	
-0.045166	0.104553	4.5166	
0.0878906	0.104462	4.53404	
0.144043	0.103479	4.53404	
0.198364	0.104272	4.55148	
0.0646973	0.102808	4.56892	
0.0854492	0.100684	4.56892	
-0.0189209	0.0964783	4.58636	
-0.00610352	0.0930664	4.58636	
-0.0415039	0.0899353	4.58636	
-0.0921631	0.0874329	4.60379	
-0.098877	0.0878479	4.60379	
-0.020752	0.0875183	4.60379	
-0.128174	0.0884277	4.60379	
0.101929	0.0884399	4.60379	
0.202637	0.0890015	4.60379	
0.167847	0.0901062	4.60379	
0.0396729	0.0890198	4.58636	
0.00427246	0.0890015	4.58636	
0.185547	0.0904907	4.58636	
0.116577	0.0902466	4.58636	
-0.0323486	0.0901611	4.60379	
-0.188599	0.0914978	4.60379	
0.0170898	0.0913574	4.60379	
0.0512695	0.0914795	4.60379	
0.0964355	0.0915771	4.60379	
-0.129395	0.0922791	4.58636	
0.0714111	0.0916748	4.58636	
0.259399	0.0930115	4.58636	
0.284424	0.0934326	4.58636	
0.0500488	0.0923035	4.58636	
0.161743	0.0930603	4.58636	
-0.209961	0.0936157	4.58636	
-0.0610352	0.0941467	4.58636	
0.055542	0.0937439	4.56892	
-0.26062	0.0961975	4.56892	
-0.227661	0.0977722	4.56892	
-0.234375	0.0996582	4.56892	
-0.268555	0.100958	4.56892	
-0.0738525	0.100787	4.56892	
0.00549316	0.100677	4.56892	
0.10498	0.101556	4.56892	
0.350952	0.104938	4.56892	
0.297852	0.1073	4.56892	
0.123901	0.107623	4.56892	
0.0964355	0.107764	4.56892	
0.0238037	0.107483	4.56892	
0.0982666	0.108466	4.56892	
-0.0396729	0.108771	4.56892	
-0.220947	0.110236	4.56892	
-0.136108	0.111133	4.56892	
-0.299683	0.113593	4.56892	
-0.26062	0.116174	4.56892	
0.00671387	0.116101	4.56892	
0.0561523	0.116602	4.56892	
-0.00305176	0.11532	4.56892	
0.143433	0.115082	4.56892	
0.197144	0.116974	4.56892	
0.129395	0.117822	4.56892	
0.12146	0.118774	4.56892	
0.00976563	0.117792	4.55148	
0.098877	0.118243	4.55148	
0.17334	0.119305	4.55148	
-0.167847	0.119989	4.55148	
-0.118408	0.121118	4.55148	
-0.00366211	0.120667	4.53404	
-0.0256348	0.120886	4.53404	
0.012207	0.119348	4.5166	
-0.120239	0.119745	4.5166	
0.0628662	0.11933	4.49916	
0.204468	0.118719	4.49916	
0.103149	0.119006	4.48172	
0.0854492	0.119489	4.48172	
0.176392	0.121057	4.48172	
0.0927734	0.121765	4.46429	
0.0976563	0.122314	4.46429	
-0.0738525	0.121313	4.44685	
-0.117798	0.121625	4.44685	
0.0408936	0.12149	4.42941	
0.00915527	0.119818	4.42941	
-0.180664	0.118634	4.41197	
-0.055542	0.117194	4.41197	
-0.0769043	0.115302	4.39453	
0.00488281	0.114551	4.39453	
0.0244141	0.114453	4.39453	
-0.132446	0.115289	4.39453	
0.0488281	0.114545	4.39453	
0.229492	0.114948	4.37709	
0.0750732	0.114142	4.37709	
0.0189209	0.113226	4.37709	
0.0195313	0.112531	4.37709	
0.106201	0.113568	4.35965	
0.147705	0.114886	4.35965	
0.0219727	0.114264	4.34222	
0.0115967	0.11272	4.34222	
0.0177002	0.111896	4.34222	
-0.126953	0.110712	4.32478	
-0.227661	0.11026	4.32478	
-0.0140381	0.108606	4.32478	
-0.136108	0.108105	4.32478	
-0.0604248	0.108319	4.32478	
-0.0695801	0.108563	4.32478	
-0.101318	0.108698	4.30734	
-0.0689697	0.107947	4.30734	
-0.0231934	0.106195	4.30734	
-0.174561	0.107294	4.30734	
-0.065918	0.107098	4.2899	
-0.0921631	0.107831	4.2899	
-0.0860596	0.10863	4.2899	
-0.189209	0.110107	4.2899	
-0.227661	0.111462	4.2899	
-0.101929	0.111493	4.2899	
-0.0653076	0.111938	4.2899	
-0.172729	0.112384	4.2899	
-0.0732422	0.112097	4.27246	
0.0115967	0.110187	4.27246	
-0.0640869	0.109149	4.27246	
0.0512695	0.109265	4.25502	
-0.0640869	0.109863	4.25502	
-0.043335	0.108441	4.23758	
0.0982666	0.108258	4.23758	
0.0976563	0.108911	4.22015	
-0.0152588	0.107178	4.22015	
0.0952148	0.107959	4.20271	
0.0012207	0.107458	4.20271	
0.119629	0.10769	4.18527	
0.0134277	0.106531	4.18527	
0.0445557	0.106262	4.16783	
0.144653	0.105115	4.15039	
0.192871	0.104199	4.15039	
0.0866699	0.104565	4.13295	
0.222168	0.10517	4.11551	
0.280762	0.105878	4.09807	
0.163574	0.106903	4.0632	
0.170288	0.108051	4.04576	
-0.0891113	0.106335	4.02832	
-0.0854492	0.104913	4.01088	
-0.0305176	0.102875	3.99344	
-0.285034	0.10304	3.976	
-0.249023	0.104791	3.95857	
-0.133667	0.106073	3.94113	
-0.211792	0.107141	3.92369	
-0.0830078	0.104462	3.90625	
-0.0512695	0.101996	3.87137	
-0.0561523	0.101318	3.85393	
0.055542	0.100909	3.81906	
-0.0341797	0.101013	3.78418	
-0.145264	0.101483	3.76674	
-0.0531006	0.101617	3.73186	
-0.0372314	0.0997803	3.71443	
0.108643	0.0995056	3.69699	
0.0958252	0.097467	3.67955	
0.0964355	0.0958252	3.64467	
0.0720215	0.0964783	3.62723	
0.183105	0.0977478	3.60979	
0.00976563	0.0978149	3.59235	
0.149536	0.097876	3.55748	
-0.0616455	0.096521	3.54004	
-0.0994873	0.0962219	3.5226	
-0.234985	0.0973572	3.50516	
-0.244141	0.0997009	3.48772	
-0.119019	0.0999023	3.47028	
-0.00793457	0.0982483	3.45285	
-0.142822	0.097998	3.43541	
0.0177002	0.096991	3.43541	
0.111084	0.0980652	3.41797	
0.090332	0.0987122	3.41797	
0.289307	0.101483	3.40053	
0.172119	0.102002	3.40053	
0.158081	0.102954	3.38309	
0.332031	0.10423	3.38309	
0.181274	0.105011	3.36565	
0.160522	0.105762	3.34821	
0.128784	0.105286	3.34821	
0.057373	0.104932	3.33078	
0.107422	0.105029	3.31334	
0.000610352	0.104297	3.2959	
-0.120239	0.104321	3.27846	
0.0561523	0.104474	3.26102	
0.116577	0.105548	3.22614	
-0.140381	0.105145	3.20871	
0.0195313	0.104785	3.17383	
0.0579834	0.104596	3.13895	
0.0567627	0.105115	3.12151	
-0.0146484	0.105017	3.08664	
-0.0817871	0.10451	3.05176	
-0.00183105	0.104041	3.01688	
0.112915	0.102875	2.99944	
-0.214844	0.104272	2.96456	
-0.140991	0.105493	2.94713	
-0.0469971	0.105768	2.91225	
-0.0860596	0.105566	2.89481	
0.0134277	0.104224	2.85993	
-0.122681	0.105231	2.84249	
-0.0244141	0.105359	2.80762	
0.0689697	0.105872	2.77274	
0.0689697	0.105292	2.73786	
-0.00244141	0.10304	2.70299	
0.124512	0.104144	2.66811	
0.0939941	0.103723	2.63323	
0.0994873	0.104114	2.58092	
-0.0341797	0.10376	2.54604	
-0.0708008	0.103455	2.49372	
0.0323486	0.103088	2.44141	
0.00793457	0.102936	2.40653	
-0.0665283	0.101855	2.35421	
-0.0506592	0.101703	2.3019	
-0.0854492	0.101636	2.26702	
-0.0976563	0.101752	2.2147	
0.0585938	0.100446	2.16239	
-0.0274658	0.0984436	2.12751	
0.032959	0.0977539	2.0752	
0.204468	0.0991455	2.04032	
0.0933838	0.0983521	1.988	
0.174561	0.0993652	1.95313	
0.22522	0.101501	1.91825	
0.217285	0.103033	1.88337	
0.286865	0.105389	1.84849	
-0.0512695	0.105261	1.81362	
-0.150146	0.106329	1.77874	
0.0402832	0.10575	1.7613	
-0.0323486	0.105096	1.74386	
-0.185547	0.106799	1.72642	
-0.193481	0.107782	1.70898	
-0.153809	0.109308	1.70898	
0.0250244	0.108362	1.69155	
0.0982666	0.10921	1.69155	
0.0390625	0.109155	1.70898	
0.15564	0.109265	1.70898	
0.174561	0.109082	1.70898	
-0.0463867	0.108679	1.70898	
0.090332	0.107361	1.72642	
0.140991	0.105963	1.72642	
-0.0158691	0.104486	1.72642	
-0.0152588	0.102936	1.72642	
-0.0817871	0.102863	1.70898	
-0.0756836	0.102765	1.70898	
0.00549316	0.102515	1.70898	
-0.098877	0.100653	1.70898	
-0.0683594	0.0988464	1.70898	
-0.00183105	0.0975281	1.69155	
-0.0524902	0.0959351	1.69155	
0.0683594	0.0957886	1.69155	
-0.114136	0.0964172	1.67411	
0.0335693	0.0961914	1.65667	
0.135498	0.096991	1.65667	
0.078125	0.0974304	1.63923	
0.0317383	0.0962952	1.63923	
0.0476074	0.0962402	1.62179	
0.0231934	0.0960999	1.60435	
0.00244141	0.0950378	1.60435	
-0.0622559	0.0947021	1.58691	
-0.0646973	0.0943848	1.58691	
0.0421143	0.0940857	1.56948	
0.0622559	0.0928772	1.55204	
-0.0543213	0.0933228	1.55204	
0.00549316	0.0918823	1.5346	
0.0915527	0.0921814	1.51716	
0.0848389	0.0920349	1.51716	
0.10376	0.0907227	1.49972	
-0.0415039	0.0886963	1.48228	
0.0292969	0.0877991	1.46484	
0.0842285	0.088562	1.46484	
-0.0567627	0.0877014	1.44741	
-0.0372314	0.0878967	1.42997	
-0.00610352	0.0868469	1.39509	
-0.0164795	0.0861084	1.37765	
0.107422	0.0842896	1.36021	
-0.00183105	0.0825867	1.34277	
-0.0506592	0.0815125	1.3079	
0.10498	0.0792419	1.29046	
0.0683594	0.0781128	1.27302	
-0.03479	0.0768555	1.23814	
0.0909424	0.0764771	1.2207	
0.154419	0.0774475	1.18583	
0.117188	0.0775452	1.16839	
-0.0152588	0.0776917	1.13351	
-0.0213623	0.0767029	1.11607	
0.0683594	0.076825	1.08119	
0.122681	0.076886	1.06376	
-0.110474	0.0765869	1.02888	
-0.0958252	0.0773499	1.01144	
-0.045166	0.0772217	0.994001	
-0.0299072	0.0769531	0.976563	
-0.0469971	0.0772766	0.941685	
-0.134888	0.0778076	0.924247	
-0.0537109	0.0783264	0.906808	
0.0390625	0.0775879	0.906808	
-0.0274658	0.0757141	0.889369	
-0.0744629	0.0750488	0.871931	
0.0317383	0.0748962	0.854492	
0.00610352	0.0740967	0.854492	
0.0268555	0.074231	0.837054	
-0.0628662	0.0736328	0.819615	
-0.0012207	0.0734009	0.819615	
0.128174	0.0739929	0.802176	
0.0952148	0.0742554	0.802176	
0.000610352	0.0742371	0.784738	
0.0469971	0.0734619	0.784738	
0.0579834	0.0731018	0.767299	
0.090332	0.0730103	0.767299	
0.00732422	0.0727417	0.74986	
-0.0280762	0.0723145	0.74986	
0.0531006	0.072522	0.74986	
0.0628662	0.0730713	0.732422	
-0.120239	0.0736084	0.732422	
-0.00549316	0.0731567	0.732422	
0.108032	0.0733826	0.714983	
0.0372314	0.0727783	0.714983	
0.0671387	0.0728638	0.714983	
-0.0634766	0.0732239	0.697545	
0.0366211	0.0732605	0.697545	
0.153198	0.0727478	0.697545	
0.0219727	0.0720337	0.680106	
-0.0244141	0.0705322	0.680106	
0.0537109	0.0688171	0.680106	
0.0189209	0.0668335	0.662667	
0.022583	0.0641907	0.662667	
-0.067749	0.0643555	0.645229	
-0.045166	0.0633057	0.645229	
0.0817871	0.0637207	0.645229	
0.0231934	0.0636292	0.62779	
-0.0909424	0.0626831	0.62779	
-0.03479	0.0610962	0.62779	
0.00244141	0.0595825	0.610352	
0.090332	0.0602356	0.610352	
-0.00549316	0.0593079	0.610352	
-0.0317383	0.0592346	0.592913	
0.126953	0.0589478	0.592913	
0.010376	0.0573059	0.575474	
-0.123291	0.058075	0.575474	
-0.00305176	0.0572021	0.575474	
0.0640869	0.0564331	0.575474	
0	0.0562744	0.575474	
0.00793457	0.0562012	0.558036	
-0.117188	0.0565552	0.558036	
-0.0134277	0.0559326	0.558036	
0.129395	0.0571716	0.558036	
-0.0115967	0.0562988	0.558036	
-0.0756836	0.0563721	0.558036	
0.0354004	0.0567078	0.558036	
-0.00732422	0.0562561	0.558036	
0.0518799	0.0560913	0.540597	
-0.0811768	0.0557617	0.540597	
-0.00915527	0.0555176	0.540597	
0.0604248	0.0547668	0.540597	
0.03479	0.0543335	0.540597	
-0.0286865	0.054303	0.540597	
0.022583	0.0540527	0.523158	
0.0494385	0.0543152	0.523158	
0.0787354	0.0550781	0.523158	
0.0933838	0.0553894	0.523158	
0.0592041	0.0553345	0.523158	
0.045166	0.055365	0.523158	
0.055542	0.0552979	0.50572	
-0.12085	0.0559631	0.50572	
0.0366211	0.0562744	0.50572	
0.043335	0.0557922	0.50572	
-0.057373	0.0555176	0.50572	
-0.0158691	0.0546387	0.50572	
-0.106812	0.0552917	0.50572	
-0.0531006	0.0555298	0.50572	
0.0671387	0.0553589	0.488281	
0.00427246	0.054834	0.488281	
0.0323486	0.0547852	0.488281	
0.00549316	0.0547791	0.488281	
-0.0134277	0.0547485	0.488281	
0.147095	0.0551453	0.488281	
-0.110474	0.0562317	0.488281	
-0.0720215	0.0564453	0.488281	
0.118408	0.0565796	0.488281	
0.057373	0.0564697	0.488281	
-0.0598145	0.05672	0.488281	
-0.0268555	0.0560791	0.488281	
-0.0128174	0.0546631	0.488281	
0.0482178	0.0539734	0.488281	
-0.0579834	0.0544006	0.488281	
-0.0445557	0.0546326	0.488281	
0.0848389	0.0547974	0.470843	
0.057373	0.0541443	0.470843	
-0.109863	0.0541382	0.470843	
0.0646973	0.0538269	0.470843	
0.0592041	0.0539673	0.470843	
-0.0317383	0.0539856	0.470843	
0.0408936	0.0539246	0.470843	
-0.067749	0.0532532	0.470843	
0.0152588	0.0528687	0.470843	
0.13855	0.0538635	0.470843	
-0.032959	0.0539185	0.453404	
-0.0640869	0.0538147	0.453404	
0.0683594	0.0541809	0.453404	
0.0238037	0.0543579	0.453404	
0.105591	0.0551453	0.435965	
-0.0311279	0.0548279	0.435965	
0.0152588	0.0549683	0.435965	
0.0915527	0.0546021	0.435965	
-0.00427246	0.0536926	0.418527	
-0.0598145	0.0542847	0.418527	
0.0524902	0.0543396	0.418527	
0.00366211	0.0537964	0.418527	
0.00244141	0.0529175	0.418527	
0.00610352	0.0529053	0.418527	
-0.111694	0.0537415	0.418527	
0.0115967	0.0533264	0.401088	
0.118408	0.0538818	0.401088	
-0.0445557	0.053125	0.401088	
0.0354004	0.0534241	0.401088	
0.0775146	0.0531189	0.401088	
0.0653076	0.0533997	0.401088	
0.0445557	0.0531738	0.401088	
-0.012207	0.0526611	0.401088	
-0.0238037	0.052533	0.401088	
0.0616455	0.0516174	0.401088	
-0.0842285	0.05224	0.401088	
-0.0909424	0.0529053	0.401088	
-0.0524902	0.0528931	0.401088	
-0.0488281	0.0531921	0.38365	
0.0164795	0.0531311	0.38365	
-0.0952148	0.0534058	0.38365	
-0.0622559	0.0535767	0.38365	
0.0653076	0.0534119	0.38365	
0.0946045	0.054126	0.38365	
-0.0445557	0.0536621	0.38365	
0.0610352	0.0539246	0.38365	
0.0152588	0.0540527	0.401088	
0.0531006	0.0536804	0.401088	
0.0537109	0.0541626	0.38365	
-0.0335693	0.0541809	0.38365	
0.0292969	0.0532043	0.38365	
0.0378418	0.053479	0.38365	
-0.088501	0.0531311	0.38365	
-0.0109863	0.0532104	0.38365	
0.0262451	0.052832	0.38365	
-0.0177002	0.053009	0.38365	
0.0305176	0.0532349	0.38365	
-0.0701904	0.0527649	0.38365	
0.0201416	0.052832	0.38365	
0.107422	0.0526123	0.38365	
0.00427246	0.0525391	0.38365	
-0.0384521	0.0521667	0.38365	
0.00793457	0.0518921	0.38365	
0.00610352	0.0518799	0.38365	
0.0836182	0.0521973	0.38365	
-0.0830078	0.0522156	0.38365	
-0.0372314	0.0524963	0.38365	
0.0750732	0.0526428	0.38365	
0.0537109	0.052832	0.38365	
-0.0445557	0.0529907	0.38365	
0.00915527	0.0528564	0.38365	
0.043335	0.0527954	0.366211	
0.0640869	0.0526489	0.366211	
0.03479	0.052063	0.366211	
-0.101929	0.0524902	0.366211	
-0.0262451	0.052301	0.366211	
0.136108	0.0531067	0.366211	
-0.0366211	0.0522644	0.366211	
-0.0402832	0.052301	0.366211	
0.0714111	0.0525818	0.366211	
0.032959	0.0523376	0.366211	
0.101929	0.0531982	0.366211	
0.0134277	0.0522644	0.366211	
-0.0457764	0.0521912	0.366211	
0.143433	0.0529541	0.366211	
-0.00976563	0.053009	0.366211	
-0.0482178	0.0531677	0.366211	
0.0134277	0.0532471	0.366211	
-0.0378418	0.0534912	0.348772	
0	0.0520203	0.348772	
-0.0891113	0.0518066	0.348772	
-0.0366211	0.0514526	0.348772	
0.03479	0.0506165	0.348772	
0.0714111	0.0507568	0.348772	
-0.0958252	0.0511169	0.348772	
0.0396729	0.0512451	0.348772	
0.0579834	0.0516968	0.348772	
-0.00366211	0.0512512	0.348772	
0.03479	0.0510193	0.348772	
-0.0299072	0.0508728	0.348772	
-0.012207	0.0501465	0.348772	
0.0616455	0.0501892	0.348772	
-0.0750732	0.0498413	0.331334	
0.0213623	0.049408	0.331334	
0.0378418	0.0491943	0.331334	
0.000610352	0.0488831	0.331334	
0.0793457	0.0492676	0.331334	
-0.088501	0.0494751	0.331334	
0.0231934	0.0495544	0.331334	
0.144653	0.0496155	0.331334	
-0.032959	0.0496155	0.331334	
-0.0415039	0.0493896	0.331334	
0.00854492	0.0487915	0.331334	
-0.0177002	0.0487305	0.331334	
0.0836182	0.0485107	0.331334	
-0.0262451	0.0484619	0.331334	
-0.0219727	0.0485291	0.331334	
0.0384521	0.047998	0.331334	
0.0610352	0.0485657	0.331334	
-0.0830078	0.0487976	0.331334	
0.0390625	0.0486633	0.331334	
0.067749	0.0493042	0.348772	
0.0286865	0.0495667	0.348772	
-0.000610352	0.0495117	0.348772	
-0.0750732	0.0491455	0.348772	
0.0280762	0.0493103	0.348772	
0.0854492	0.0489807	0.331334	
-0.0604248	0.0491394	0.331334	
0.0457764	0.0492432	0.331334	
0.114746	0.0496155	0.331334	
0.0537109	0.0494995	0.331334	
0.0976563	0.0500305	0.331334	
0.00427246	0.0499512	0.331334	
0.00366211	0.0497498	0.331334	
0.0787354	0.0499207	0.331334	
-0.000610352	0.0490845	0.331334	
-0.067749	0.0488525	0.331334	
-0.00305176	0.0483582	0.331334	
-0.057373	0.0484436	0.331334	
-0.0683594	0.0489624	0.331334	
-0.10437	0.049054	0.331334	
-0.0665283	0.0490967	0.331334	
0.0512695	0.0489563	0.331334	
0.0360107	0.0483704	0.331334	
-0.142822	0.049353	0.331334	
-0.0158691	0.0489014	0.348772	
0.0128174	0.048877	0.348772	
0.0177002	0.0485229	0.348772	
0.00427246	0.0480286	0.348772	
-0.0695801	0.0483887	0.331334	
0.020752	0.0483032	0.331334	
0.113525	0.0490601	0.331334	
-0.0628662	0.0488037	0.331334	
-0.0238037	0.0489319	0.331334	
0.0799561	0.049469	0.331334	
0.043335	0.0497253	0.331334	
0.159912	0.0510193	0.331334	
-0.115356	0.0514709	0.331334	
0.043335	0.0517029	0.331334	
0.15625	0.0521912	0.331334	
0.0152588	0.052301	0.331334	
0.00183105	0.0519348	0.331334	
0.010376	0.0519592	0.331334	
-0.0305176	0.0522034	0.331334	
0.0634766	0.052002	0.331334	
-0.0695801	0.0518677	0.331334	
-0.045166	0.051947	0.331334	
0.0683594	0.0518799	0.331334	
0.0891113	0.0522339	0.331334	
-0.0775146	0.0525635	0.331334	
0.0134277	0.0526062	0.331334	
0.0549316	0.0527222	0.331334	
0.0415039	0.0524963	0.331334	
0.0384521	0.052533	0.331334	
-0.0421143	0.0519348	0.331334	
-0.00549316	0.0517273	0.331334	
0.145264	0.0518188	0.331334	
-0.0823975	0.0522766	0.331334	
0.00549316	0.0519287	0.331334	
0.078125	0.0519958	0.331334	
-0.0335693	0.052002	0.331334	
0.0994873	0.0519775	0.331334	
-0.0164795	0.0520081	0.331334	
0.012207	0.0516724	0.331334	
0.15564	0.0517944	0.331334	
0.0744629	0.0524414	0.331334	
0.0183105	0.0521423	0.331334	
0.0109863	0.0521179	0.331334	
0.0256348	0.0519958	0.331334	
0.032959	0.0523254	0.331334	
-0.0494385	0.0519287	0.331334	
-0.10437	0.0526062	0.331334	
-0.0439453	0.0526978	0.331334	
0.0219727	0.0522034	0.331334	
-0.181885	0.053064	0.331334	
-0.090332	0.0535706	0.313895	
-0.00915527	0.0530823	0.313895	
0.0341797	0.0533875	0.313895	
0.00854492	0.053125	0.313895	
-0.101929	0.0538452	0.313895	
0.0213623	0.0539368	0.313895	
0.0653076	0.0539734	0.313895	
-0.0598145	0.0538208	0.313895	
0.0115967	0.0537231	0.313895	
0.0592041	0.0539368	0.313895	
-0.00488281	0.0539795	0.313895	
0.0726318	0.0539124	0.331334	
-0.0598145	0.0536255	0.331334	
0.0341797	0.0537354	0.331334	
0.0653076	0.0529419	0.331334	
0.0354004	0.0529663	0.331334	
0.0134277	0.0526855	0.331334	
-0.00610352	0.0526611	0.331334	
0.020752	0.0526917	0.331334	
0.0604248	0.0524597	0.313895	
-0.0164795	0.0523621	0.313895	
-0.0518799	0.0526611	0.313895	
0.0653076	0.0529297	0.313895	
0.0244141	0.0525635	0.313895	
-0.100098	0.0527344	0.313895	
-0.00732422	0.052417	0.313895	
0.0537109	0.0522766	0.313895	
0.0274658	0.0522644	0.313895	
0	0.0522583	0.313895	
-0.0427246	0.0519348	0.313895	
0.0201416	0.0518555	0.313895	
0.131836	0.0523193	0.331334	
-0.0665283	0.0523804	0.331334	
-0.0170898	0.0520935	0.331334	
0.0384521	0.0513306	0.331334	
-0.0323486	0.0511169	0.313895	
0.0689697	0.0508301	0.313895	
-0.10376	0.051825	0.313895	
-0.0195313	0.0519836	0.313895	
0.0915527	0.0521118	0.313895	
-0.00915527	0.0521973	0.313895	
-0.0457764	0.0519775	0.313895	
0.0274658	0.0522217	0.313895	
0.0146484	0.0517944	0.313895	
0.0787354	0.0518982	0.313895	
-0.0250244	0.0511047	0.313895	
-0.0183105	0.0506226	0.313895	
0.0927734	0.0510376	0.313895	
0.123901	0.0519165	0.313895	
-0.0427246	0.0509155	0.331334	
-0.0158691	0.0509155	0.331334	
0.0622559	0.0514099	0.331334	
0.0817871	0.0520508	0.331334	
0.00732422	0.0520813	0.331334	
-0.0488281	0.0518738	0.331334	
-0.0396729	0.052063	0.331334	
0.0476074	0.0514038	0.331334	
-0.0665283	0.0514404	0.313895	
-0.0756836	0.0519592	0.313895	
0.0152588	0.0513123	0.313895	
-0.0280762	0.0511597	0.313895	
0.0408936	0.0499695	0.313895	
-0.0585938	0.0494019	0.313895	
-0.0537109	0.0495056	0.313895	
0.0964355	0.0489075	0.313895	
0.0408936	0.0491638	0.313895	
-0.00488281	0.0491943	0.313895	
0.022583	0.0493164	0.313895	
0.0372314	0.0493835	0.313895	
0.0445557	0.0491943	0.313895	
-0.0305176	0.0488037	0.313895	
-0.0531006	0.0488831	0.313895	
0.0579834	0.0487793	0.313895	
0.0549316	0.0484375	0.313895	
-0.100708	0.0486694	0.313895	
0.00244141	0.0485596	0.313895	
0.0531006	0.0485413	0.313895	
0.00549316	0.0481812	0.313895	
0.0549316	0.0483459	0.313895	
-0.0561523	0.0484863	0.313895	
-0.00427246	0.0484741	0.313895	
0.0854492	0.047876	0.313895	
-0.0372314	0.0474243	0.313895	
-0.0158691	0.0475281	0.313895	
0.0360107	0.0471069	0.313895	
0.0244141	0.0470154	0.313895	
0.124512	0.0472656	0.313895	
-0.0445557	0.0475464	0.313895	
0.0463867	0.0478882	0.313895	
0.090332	0.0472351	0.313895	
0.0445557	0.046936	0.313895	
-0.0189209	0.0469421	0.313895	
-0.0402832	0.0472351	0.313895	
-0.00915527	0.0470703	0.313895	
0.00183105	0.046759	0.313895	
-0.0640869	0.0469055	0.313895	
-0.108643	0.0469482	0.313895	
0.00915527	0.0466003	0.313895	
0.0665283	0.0470459	0.313895	
-0.102539	0.0462524	0.313895	
0.0274658	0.0456238	0.313895	
0.0598145	0.0461304	0.313895	
0.0720215	0.0465088	0.313895	
0.0445557	0.0468689	0.313895	
0.012207	0.0459717	0.313895	
0.032959	0.0460876	0.313895	
0.131836	0.0467529	0.313895	
0.00610352	0.0462158	0.313895	
0.022583	0.0463257	0.313895	
0.057373	0.0463074	0.313895	
-0.0335693	0.0465942	0.313895	
0.0799561	0.0466675	0.313895	
-0.0787354	0.0468567	0.313895	
-0.0250244	0.0467651	0.313895	
0.0598145	0.0467102	0.313895	
-0.00732422	0.0464294	0.313895	
-0.0567627	0.0468628	0.313895	
-0.000610352	0.0468079	0.313895	
-0.0256348	0.0468567	0.313895	
0.022583	0.0464783	0.313895	
-0.0128174	0.0464417	0.313895	
-0.0646973	0.0465698	0.313895	
0.055542	0.0464722	0.313895	
0.0494385	0.0467224	0.313895	
-0.0622559	0.046344	0.313895	
0.0506592	0.0467773	0.313895	
0.0561523	0.0468018	0.313895	
0.0494385	0.0470215	0.313895	
0.0891113	0.0479126	0.313895	
-0.0323486	0.0478088	0.313895	
0.0268555	0.047876	0.313895	
0.101318	0.0475708	0.313895	
-0.0250244	0.0471558	0.313895	
-0.0274658	0.0472595	0.313895	
0.0848389	0.0477234	0.313895	
-0.012207	0.047522	0.313895	
0.0402832	0.0472351	0.313895	
-0.0579834	0.0467773	0.313895	
-0.0238037	0.0468201	0.331334	
0.107422	0.0469788	0.331334	
0.00915527	0.0469788	0.331334	
-0.0750732	0.0472717	0.331334	
0.00732422	0.0470703	0.331334	
0.0213623	0.0471375	0.331334	
0.043335	0.0467834	0.331334	
-0.0457764	0.046991	0.331334	
-0.0695801	0.0475037	0.331334	
0.0683594	0.0472595	0.331334	
0.0726318	0.0467468	0.331334	
-0.0970459	0.04729	0.331334	
0.0268555	0.0473999	0.331334	
0.065918	0.0474365	0.331334	
0.0360107	0.0469788	0.313895	
0.136719	0.0482727	0.313895	
-0.0109863	0.0478943	0.313895	
0.0299072	0.0477966	0.313895	
0.128784	0.0486084	0.313895	
-0.0238037	0.0481812	0.313895	
0.0195313	0.0476196	0.313895	
0.0335693	0.0478027	0.313895	
-0.0170898	0.0476929	0.313895	
-0.00732422	0.0473572	0.313895	
-0.108032	0.0478516	0.313895	
-0.0134277	0.0474487	0.313895	
0.0537109	0.0470215	0.313895	
-0.0256348	0.0468689	0.313895	
-0.0531006	0.0473511	0.313895	
0.0213623	0.0473389	0.313895	
0.00549316	0.0470215	0.313895	
0.0537109	0.047113	0.331334	
-0.00671387	0.046875	0.331334	
-0.0549316	0.0468933	0.331334	
0.0579834	0.0468933	0.331334	
0.0354004	0.046698	0.331334	
-0.0793457	0.0464844	0.331334	
0.0189209	0.0466492	0.331334	
0.0762939	0.0468811	0.331334	
0.020752	0.0470337	0.331334	
0.0482178	0.0469666	0.331334	
-0.043335	0.0468384	0.331334	
0.0463867	0.0472595	0.331334	
0.0823975	0.047229	0.331334	
-0.0579834	0.0474365	0.331334	
-0.0299072	0.0475769	0.331334	
0.0146484	0.0473633	0.331334	
-0.0372314	0.0474915	0.331334	
0.0439453	0.0466858	0.331334	
-0.0653076	0.0468933	0.331334	
0.020752	0.046637	0.331334	
0.0823975	0.0465576	0.331334	
0.0323486	0.0464355	0.331334	
-0.107422	0.0473206	0.331334	
0.0512695	0.0474304	0.331334	
0.055542	0.0478943	0.331334	
0.0439453	0.0483154	0.331334	
-0.0256348	0.0479309	0.331334	
-0.0512695	0.0473572	0.331334	
0.0427246	0.0476929	0.331334	
0.0640869	0.0476685	0.331334	
-0.0262451	0.0469055	0.331334	
0.0598145	0.047229	0.313895	
0.0714111	0.047345	0.313895	
0.0195313	0.0468201	0.313895	
0.0836182	0.0472107	0.313895	
-0.0543213	0.0476318	0.313895	
-0.0140381	0.0474426	0.313895	
0.0512695	0.046637	0.313895	
-0.0878906	0.0474548	0.313895	
-0.100098	0.04823	0.313895	
-0.0115967	0.0477722	0.313895	
-0.032959	0.0477661	0.313895	
0.0500488	0.047467	0.313895	
-0.0689697	0.0473694	0.313895	
0.0134277	0.0472534	0.313895	
0.0689697	0.047345	0.313895	
0.057373	0.0478455	0.313895	
-0.0231934	0.0475098	0.313895	
0.0469971	0.0479736	0.331334	
0.0610352	0.0483276	0.331334	
0.0585938	0.0486877	0.331334	
0.0128174	0.0486877	0.331334	
-0.0384521	0.0484253	0.331334	
0.102539	0.0488953	0.331334	
0.0683594	0.0490845	0.331334	
-0.113525	0.0495972	0.331334	
-0.0146484	0.0492371	0.331334	
0.0170898	0.0488464	0.331334	
0.0177002	0.0485291	0.331334	
0.0579834	0.0482178	0.331334	
-0.115356	0.0490479	0.331334	
-0.0305176	0.0490845	0.331334	
0.0970459	0.0490417	0.331334	
-0.0793457	0.049585	0.331334	
-0.0219727	0.04953	0.331334	
0.032959	0.0490112	0.331334	
0.00732422	0.0489624	0.331334	
0.105591	0.0496155	0.313895	
-0.0274658	0.0493103	0.313895	
-0.0152588	0.0492249	0.313895	
0.133667	0.0494873	0.313895	
0.0402832	0.0497986	0.313895	
-0.012207	0.0491699	0.313895	
0.0158691	0.0492554	0.313895	
0.0366211	0.049408	0.313895	
0.0805664	0.0497803	0.313895	
-0.0543213	0.0498657	0.313895	
-0.0628662	0.0497986	0.313895	
0.0341797	0.0494568	0.331334	
-0.00854492	0.0488159	0.331334	
-0.102539	0.0488708	0.331334	
-0.00244141	0.0486267	0.331334	
0.0512695	0.0484802	0.313895	
0.022583	0.0483459	0.313895	
0.0421143	0.0473999	0.313895	
-0.0012207	0.0473022	0.313895	
0.0408936	0.0474121	0.313895	
0.162964	0.0477539	0.313895	
0.0195313	0.0477112	0.313895	
-0.0109863	0.0476257	0.313895	
0.0671387	0.0479614	0.313895	
0.0439453	0.04823	0.331334	
0.0653076	0.0488098	0.331334	
-0.0305176	0.0480347	0.331334	
-0.0537109	0.0484375	0.331334	
0.0500488	0.0484009	0.331334	
-0.00366211	0.0481812	0.331334	
-0.112915	0.0487793	0.331334	
0.00915527	0.0486572	0.331334	
0.00610352	0.0486633	0.331334	
0.0115967	0.0482422	0.331334	
-0.0274658	0.0484497	0.331334	
-0.032959	0.04823	0.331334	
0.045166	0.0481018	0.331334	
0.0762939	0.0485107	0.331334	
-0.090332	0.0486206	0.331334	
0.00488281	0.0484802	0.331334	
0.114136	0.0488586	0.331334	
0.0341797	0.0489929	0.331334	
0.0500488	0.0490112	0.331334	
-0.00915527	0.0486694	0.331334	
0.0958252	0.0491638	0.331334	
0.158081	0.0499207	0.331334	
0.0439453	0.0497803	0.331334	
-0.020752	0.0496887	0.331334	
0.0537109	0.0500793	0.331334	
0.0402832	0.0501099	0.313895	
0.101318	0.0506836	0.313895	
-0.0897217	0.0509277	0.313895	
-0.0476074	0.0511963	0.313895	
0.0549316	0.0509216	0.313895	
-0.0140381	0.0507385	0.313895	
-0.0561523	0.0502258	0.313895	
0.020752	0.0499207	0.313895	
0.0482178	0.0498474	0.313895	
0.0518799	0.0499268	0.331334	
0.0469971	0.0501404	0.331334	
0.00732422	0.0497009	0.331334	
0.0817871	0.0500916	0.331334	
0.112915	0.0505798	0.331334	
-0.0512695	0.0508301	0.331334	
0.0653076	0.050885	0.331334	
0.150146	0.0516724	0.331334	
0.0622559	0.0520996	0.331334	
0.127563	0.0525391	0.331334	
0.0457764	0.0524536	0.331334	
0.125732	0.0535706	0.331334	
0.162964	0.0546875	0.331334	
0.0335693	0.0541443	0.331334	
0.0708008	0.0538513	0.331334	
0.120239	0.0549377	0.331334	
0.0952148	0.0555603	0.331334	
0.230713	0.0573669	0.331334	
0.03479	0.0570251	0.331334	
0.0848389	0.0577393	0.331334	
0.177002	0.0588196	0.331334	
0.169678	0.0599426	0.331334	
0.0793457	0.0605042	0.331334	
0.141602	0.0614502	0.313895	
0.179443	0.0626343	0.313895	
0.219727	0.0642456	0.313895	
0.195923	0.0660767	0.313895	
0.108643	0.0667786	0.313895	
0.236816	0.0681213	0.313895	
0.209351	0.0695313	0.313895	
0.0543213	0.0689392	0.313895	
0.202026	0.070813	0.331334	
0.171509	0.0723572	0.331334	
0.142822	0.0736084	0.331334	
0.175171	0.0747803	0.331334	
0.0830078	0.0744568	0.331334	
0.150757	0.0756592	0.331334	
0.176392	0.0764526	0.331334	
0.0640869	0.0763	0.331334	
0.0616455	0.0766968	0.331334	
0.149536	0.0778625	0.331334	
0.0793457	0.0785828	0.331334	
0.146484	0.0789917	0.331334	
-0.00183105	0.0787354	0.331334	
0.057373	0.0791565	0.331334	
0.116577	0.0789856	0.331334	
0.0457764	0.0790405	0.331334	
-0.0360107	0.0792786	0.331334	
0.065918	0.0797791	0.331334	
0.00671387	0.07948	0.331334	
0.0915527	0.0795898	0.331334	
-0.000610352	0.0790527	0.331334	
-0.0140381	0.0785645	0.331334	
0.0500488	0.0787231	0.331334	
0.0274658	0.0789124	0.331334	
-0.0823975	0.0787109	0.331334	
0.0213623	0.0789001	0.331334	
0.0408936	0.0787964	0.331334	
0.0170898	0.0787415	0.331334	
0.0134277	0.0784546	0.331334	
-0.0323486	0.0787659	0.331334	
0.0335693	0.0786926	0.331334	
0.0585938	0.0776489	0.331334	
-0.0537109	0.0779907	0.331334	
-0.00366211	0.0779175	0.331334	
0.00793457	0.0773254	0.331334	
-0.00854492	0.0769714	0.331334	
0.0445557	0.0767639	0.331334	
-0.0604248	0.077063	0.331334	
0.00854492	0.0766113	0.331334	
0.0970459	0.0770813	0.331334	
0.0115967	0.0771606	0.331334	
-0.0494385	0.0765259	0.331334	
0.0305176	0.0767395	0.331334	
0.0378418	0.0770569	0.331334	
0.0604248	0.0775452	0.331334	
0.0482178	0.0777527	0.331334	
-0.00366211	0.0774597	0.331334	
0.0646973	0.077655	0.331334	
0.0250244	0.0771423	0.331334	
-0.0982666	0.0772217	0.331334	
0.00854492	0.0772583	0.331334	
0.0518799	0.0766357	0.331334	
0.00488281	0.0763428	0.331334	
0.0561523	0.0764038	0.331334	
-0.0488281	0.0768005	0.331334	
0.0311279	0.0761536	0.331334	
0.00366211	0.0746094	0.331334	
-0.137939	0.0755493	0.331334	
-0.0811768	0.0761536	0.331334	
-0.0494385	0.0761108	0.331334	
-0.0848389	0.0765564	0.331334	
-0.0408936	0.0759521	0.331334	
-0.165405	0.076709	0.331334	
-0.0500488	0.0767334	0.331334	
0	0.0761841	0.348772	
-0.0964355	0.0770081	0.348772	
-0.142822	0.0778748	0.331334	
-0.0384521	0.0780518	0.331334	
-0.0787354	0.0783569	0.331334	
-0.020752	0.0780457	0.331334	
-0.0830078	0.0784058	0.331334	
-0.10498	0.0793823	0.331334	
-0.0354004	0.0789185	0.331334	
-0.0756836	0.0785461	0.331334	
-0.235596	0.0803894	0.331334	
-0.117798	0.0809143	0.331334	
-0.109253	0.0805054	0.331334	
-0.125122	0.081134	0.331334	
-0.0744629	0.080603	0.331334	
-0.166016	0.0818054	0.331334	
-0.0708008	0.0812561	0.331334	
-0.0372314	0.0799988	0.331334	
-0.209961	0.0817627	0.331334	
-0.103149	0.0820862	0.331334	
-0.125732	0.0821411	0.331334	
-0.147705	0.082666	0.331334	
-0.0701904	0.0810608	0.331334	
-0.172729	0.0824402	0.331334	
-0.0689697	0.0822815	0.331334	
-0.020752	0.080719	0.331334	
-0.132446	0.0803467	0.331334	
-0.238647	0.0819397	0.331334	
-0.0280762	0.0808044	0.331334	
-0.0598145	0.0796082	0.331334	
-0.0726318	0.0781372	0.331334	
-0.117188	0.0773499	0.331334	
-0.0799561	0.077063	0.331334	
0.0653076	0.0753479	0.331334	
0.0909424	0.0741638	0.331334	
-0.0817871	0.0744385	0.331334	
0.0640869	0.0730591	0.331334	
0.090332	0.0722473	0.331334	
0.0378418	0.0711975	0.331334	
0.10437	0.0704895	0.331334	
0.055542	0.0702148	0.331334	
0.167236	0.0703796	0.331334	
0.26123	0.071228	0.331334	
0.0811768	0.0713989	0.331334	
0.0799561	0.071582	0.331334	
0.184326	0.0719299	0.331334	
0.128784	0.0724243	0.331334	
0.15686	0.0725281	0.331334	
-0.00732422	0.072583	0.331334	
0.102539	0.0730347	0.331334	
0.189819	0.0737671	0.331334	
0.0915527	0.0742249	0.331334	
-0.0183105	0.0740479	0.331334	
0.183716	0.0752258	0.331334	
0.113525	0.0762939	0.331334	
0.118408	0.0765625	0.331334	
0.0592041	0.0771484	0.331334	
0.043335	0.0774414	0.331334	
0.140381	0.0783447	0.331334	
0.117798	0.079248	0.348772	
-0.0653076	0.0790771	0.348772	
0.0689697	0.0795532	0.348772	
0.110474	0.080249	0.348772	
0.010376	0.0801819	0.331334	
0.0872803	0.0809204	0.331334	
-0.0561523	0.0811584	0.331334	
0.126953	0.0820923	0.331334	
0.118408	0.0826904	0.331334	
-0.0384521	0.0825378	0.331334	
0.0366211	0.0828674	0.331334	
0.0445557	0.0832336	0.331334	
0.0109863	0.0832581	0.331334	
0.0720215	0.0835327	0.331334	
-0.0579834	0.0835083	0.348772	
0.00854492	0.0835083	0.348772	
0.118408	0.0837219	0.348772	
0.0891113	0.0844971	0.348772	
-0.108643	0.0850891	0.331334	
0.0390625	0.0851746	0.331334	
0.0695801	0.0854919	0.331334	
0.0488281	0.085376	0.331334	
-0.0164795	0.0850586	0.331334	
-0.0482178	0.0855042	0.331334	
0.0561523	0.0854187	0.331334	
0.043335	0.0856018	0.331334	
-0.107422	0.0856934	0.331334	
0.0415039	0.0860229	0.331334	
0.0634766	0.0861389	0.331334	
-0.0299072	0.0863892	0.331334	
0.0531006	0.0863586	0.331334	
-0.0665283	0.0865356	0.331334	
0.108643	0.0873108	0.331334	
0.161133	0.0888855	0.331334	
-0.0372314	0.0878784	0.331334	
-0.057373	0.0876404	0.331334	
0.0909424	0.0880554	0.331334	
0.03479	0.0875549	0.331334	
0.0384521	0.0875305	0.331334	
-0.065918	0.0865356	0.331334	
0.010376	0.0861389	0.331334	
0.0762939	0.0869019	0.331334	
0.0299072	0.0862366	0.331334	
-0.0787354	0.0855957	0.331334	
0.0738525	0.0859497	0.331334	
0.0823975	0.0859863	0.331334	
0.0543213	0.086322	0.331334	
0.00549316	0.0855469	0.331334	
-0.0488281	0.0849854	0.331334	
0.0341797	0.0849731	0.331334	
0.098877	0.0852051	0.331334	
-0.125122	0.0841003	0.331334	
-0.000610352	0.0829285	0.331334	
0.0476074	0.082312	0.331334	
-0.0445557	0.0815063	0.331334	
0.0524902	0.0812866	0.331334	
-0.0262451	0.0798889	0.331334	
0.0482178	0.0796631	0.331334	
0.106201	0.0803528	0.331334	
-0.0317383	0.0785706	0.331334	
-0.0305176	0.0778442	0.331334	
0.0634766	0.0772217	0.331334	
0.0280762	0.0760254	0.331334	
0.0366211	0.0756897	0.331334	
-0.0714111	0.0746765	0.331334	
-0.0012207	0.073999	0.331334	
0.111694	0.0749084	0.348772	
0.0390625	0.0739746	0.348772	
-0.0701904	0.07229	0.348772	
0.0756836	0.0727661	0.348772	
0.0201416	0.0723694	0.348772	
0.0189209	0.0718323	0.348772	
0.0256348	0.0709167	0.348772	
-0.0567627	0.0706848	0.348772	
0.0177002	0.0702087	0.348772	
-0.0134277	0.0694336	0.348772	
-0.222168	0.0708374	0.348772	
-0.0939941	0.0711365	0.348772	
-0.0250244	0.0704834	0.348772	
-0.0726318	0.0708313	0.348772	
-0.0280762	0.0700684	0.348772	
-0.135498	0.0708679	0.348772	
0.00366211	0.0692322	0.348772	
0.134888	0.0679687	0.348772	
0.00854492	0.0672424	0.348772	
0.0238037	0.0666809	0.348772	
0.109253	0.0659302	0.348772	
-0.0115967	0.0647583	0.366211	
-0.0762939	0.0639526	0.366211	
-0.0927734	0.0648071	0.366211	
-0.0695801	0.0644775	0.366211	
-0.0964355	0.0635437	0.366211	
-0.20874	0.0647156	0.366211	
-0.310059	0.0676331	0.366211	
-0.0952148	0.066748	0.38365	
-0.0714111	0.0663269	0.38365	
-0.0256348	0.0653992	0.38365	
-0.0238037	0.0650452	0.401088	
-0.032959	0.0649414	0.401088	
0.110474	0.0646423	0.401088	
0.0982666	0.064447	0.418527	
-0.0726318	0.0645203	0.418527	
0.055542	0.064386	0.418527	
0.0866699	0.0641479	0.418527	
0.0378418	0.0644226	0.435965	
0.0933838	0.0644836	0.435965	
-0.0335693	0.0642578	0.435965	
0.161133	0.0645996	0.453404	
0.324097	0.0666565	0.453404	
0.0262451	0.0665344	0.453404	
0.162354	0.0677917	0.453404	
0.267334	0.0700195	0.470843	
0.130005	0.0712097	0.470843	
0.0671387	0.0711609	0.470843	
0.0311279	0.0708923	0.488281	
0.161743	0.0724243	0.488281	
-0.00976563	0.0713379	0.488281	
-0.222168	0.0726685	0.50572	
-0.159302	0.073175	0.50572	
-0.0830078	0.0736145	0.523158	
-0.145264	0.0743713	0.540597	
-0.180664	0.0756897	0.558036	
-0.12146	0.0767395	0.575474	
0.00244141	0.0762817	0.592913	
0.10437	0.0767639	0.610352	
0.251465	0.0788452	0.645229	
-0.257568	0.0803467	0.662667	
-0.0439453	0.0803711	0.697545	
0.185547	0.0815918	0.732422	
0.0750732	0.0820435	0.74986	
0.0109863	0.0816223	0.784738	
-0.299072	0.0839478	0.802176	
-0.101929	0.0838806	0.837054	
0.00549316	0.0823242	0.871931	
-0.205688	0.0840088	0.906808	
-0.178223	0.0852173	0.959124	
-0.0134277	0.0844421	0.994001	
-0.0598145	0.0846924	1.04632	
-0.0579834	0.0848877	1.09863	
-0.210571	0.0863342	1.16839	
-0.0323486	0.086554	1.2207	
0.159302	0.087384	1.29046	
-0.136108	0.088446	1.34277	
-0.00427246	0.0877014	1.41253	
0.287476	0.0898376	1.46484	
0.368652	0.0927002	1.51716	
0.103149	0.0931885	1.58691	
0.00610352	0.0931946	1.63923	
-0.0109863	0.0928162	1.69155	
-0.0671387	0.0931458	1.7613	
0.110474	0.0932617	1.83105	
-0.110474	0.0931152	1.91825	
-0.15625	0.0946716	1.988	
-0.128174	0.0954773	2.0752	
-0.0671387	0.0957031	2.16239	
-0.0280762	0.095459	2.24958	
-0.20813	0.0972778	2.31934	
0.269165	0.0994873	2.40653	
0.371704	0.102142	2.47628	
0.101929	0.102844	2.54604	
0.0952148	0.103491	2.61579	
0.139771	0.104254	2.66811	
-0.111084	0.105084	2.73786	
0.0427246	0.105145	2.80762	
-0.108032	0.105511	2.87737	
-0.143433	0.106934	2.94713	
0.232544	0.108142	3.01688	
-0.114746	0.108899	3.10407	
-0.166016	0.109857	3.19127	
0.170288	0.110803	3.27846	
0.0408936	0.111011	3.36565	
0.0549316	0.111371	3.45285	
0.0488281	0.111603	3.54004	
-0.125732	0.112292	3.60979	
-0.167847	0.113794	3.69699	
0.0109863	0.11377	3.78418	
-0.233765	0.113885	3.85393	
0.175781	0.114703	3.94113	
0.0579834	0.115033	4.02832	
0.270996	0.117017	4.11551	
0.650024	0.123236	4.22015	
0.824585	0.130127	4.30734	
0.543213	0.135522	4.41197	
-0.0262451	0.134436	4.49916	
-0.162964	0.13598	4.58636	
0.0561523	0.136304	4.69099	
0.0671387	0.135883	4.79562	
-0.46875	0.140454	4.90025	
-0.440063	0.144092	5.00488	
-0.402222	0.147186	5.12695	
-0.0396729	0.146887	5.23158	
0.60791	0.152002	5.35366	
0.359497	0.15351	5.45829	
0.411987	0.154529	5.56292	
0.3479	0.157056	5.66755	
0.180664	0.158148	5.77218	
0.0872803	0.158765	5.85938	
0.0762939	0.15929	5.94657	
-0.338745	0.162347	6.03376	
-0.3479	0.164722	6.12095	
-0.294189	0.166681	6.20815	
-0.236816	0.168323	6.29534	
0.0286865	0.168054	6.38253	
0.39978	0.171185	6.46973	
0.0592041	0.171399	6.55692	
0.408936	0.174554	6.62667	
0.0762939	0.174982	6.71387	
0.0915527	0.174286	6.8185	
0.362549	0.17467	6.90569	
0.186157	0.17627	6.99289	
-0.00488281	0.174695	7.09752	
-0.106812	0.17309	7.20215	
0.26001	0.17439	7.30678	
0.3479	0.177197	7.39397	
0.31311	0.180017	7.4986	
0.576782	0.184167	7.5858	
0.127563	0.185345	7.67299	
0.163574	0.18476	7.76018	
0.254517	0.185712	7.82994	
0.230103	0.187183	7.89969	
0.0616455	0.186346	7.96945	
-0.405273	0.188593	8.05664	
-0.523682	0.192615	8.1264	
-0.368042	0.196271	8.21359	
-0.185547	0.197083	8.28334	
-0.566406	0.200232	8.37054	
-0.496216	0.202618	8.47517	
-0.453491	0.206714	8.56236	
-0.0817871	0.205676	8.64955	
-0.0610352	0.205536	8.75419	
-0.0909424	0.206335	8.85882	
0.0231934	0.203577	8.96345	
0.220947	0.204767	9.08552	
0.349731	0.208209	9.19015	
-0.0360107	0.206512	9.29478	
-0.112915	0.205859	9.39941	
0.353394	0.209259	9.50405	
0.296021	0.211621	9.60868	
0.266113	0.213702	9.69587	
0.264893	0.214246	9.78306	
0.393677	0.217859	9.87026	
0.614624	0.222412	9.94001	
-0.32959	0.224347	10.0098	
-0.0854492	0.225159	10.0621	
0.0537109	0.222821	10.1318	
-0.203857	0.221173	10.1842	
-0.691528	0.227057	10.219	
-0.249023	0.229486	10.2713	
-0.245972	0.231836	10.3062	
0.145264	0.232617	10.3585	
0.586548	0.237378	10.3934	
0.690918	0.243182	10.4283	
0.817871	0.249799	10.4457	
0.600586	0.254523	10.4806	
0.256958	0.256421	10.498	
-0.22644	0.258405	10.5329	
-0.238037	0.258704	10.5504	
-0.26062	0.258618	10.5678	
-0.500488	0.259906	10.6027	
-0.814209	0.267029	10.6376	
-0.405273	0.270129	10.6724	
-0.0402832	0.269135	10.7247	
0.346069	0.271484	10.7771	
-0.0732422	0.27179	10.8468	
0.288696	0.273596	10.9166	
0.303345	0.275195	10.9863	
0.0958252	0.273828	11.0735	
-0.46936	0.277374	11.1433	
-0.414429	0.279858	11.2305	
-0.542603	0.283582	11.3002	
-0.69397	0.290112	11.3874	
-0.683594	0.296399	11.4746	
-0.405273	0.299963	11.5444	
-0.324707	0.301953	11.6316	
-0.136108	0.301636	11.7013	
-0.0701904	0.302228	11.7885	
-0.0976563	0.300867	11.8583	
0.0982666	0.300092	11.928	
0.236816	0.30188	11.9978	
0.244141	0.301611	12.0675	
0.183105	0.296942	12.1198	
0.0427246	0.289124	12.1722	
0.213623	0.285828	12.2245	
0.338745	0.288953	12.2768	
0.238037	0.289703	12.3117	
-0.125122	0.290393	12.3465	
0.405884	0.293781	12.3814	
0.206299	0.291156	12.3989	
0.0335693	0.287091	12.4163	
0.100098	0.28407	12.4163	
0.177612	0.285449	12.4163	
-0.106812	0.280438	12.3989	
-0.010376	0.276947	12.3814	
-0.0115967	0.272943	12.3465	
0.0408936	0.269873	12.3117	
0.115356	0.26922	12.2593	
0.203857	0.270386	12.207	
0.12146	0.270837	12.1547	
-0.111694	0.268567	12.085	
0.235596	0.267444	12.0326	
0.251465	0.267017	11.9629	
-0.0683594	0.265332	11.8931	
0.697632	0.272021	11.8234	
0.19165	0.26994	11.7362	
0.0543213	0.269891	11.6664	
0.477295	0.270575	11.5967	
0.0335693	0.270148	11.5269	
-0.0811768	0.270044	11.4572	
0.0164795	0.266583	11.3874	
-0.353394	0.268256	11.3351	
-0.582886	0.274036	11.2653	
-0.349731	0.276465	11.2305	
-0.325317	0.277118	11.1782	
-0.0976563	0.274615	11.1433	
-0.188599	0.27337	11.1084	
-0.0268555	0.267871	11.091	
-0.0012207	0.266608	11.0735	
-0.129395	0.266266	11.0735	
-0.358887	0.26731	11.0735	
-0.148926	0.266498	11.0735	
-0.160522	0.267487	11.0735	
-0.580444	0.269238	11.0735	
-0.57373	0.269739	11.0735	
-0.426025	0.270319	11.091	
-0.0793457	0.269257	11.091	
0.22644	0.265857	11.091	
-0.022583	0.261121	11.091	
-0.112305	0.257709	11.091	
0.0463867	0.257355	11.091	
0.0836182	0.257581	11.091	
0.192261	0.258594	11.091	
-0.165405	0.260016	11.091	
0.0164795	0.257971	11.091	
0.165405	0.256128	11.0735	
0.090332	0.256671	11.0735	
0.0842285	0.256384	11.0561	
0.250854	0.255359	11.0386	
0.250854	0.254907	11.0212	
0.111084	0.253357	10.9863	
-0.221558	0.252924	10.9515	
0.189819	0.250885	10.9166	
0.0189209	0.244928	10.8643	
0.0152588	0.241785	10.8119	
0.289917	0.243829	10.7596	
0.577393	0.249066	10.7073	
0.438232	0.25141	10.655	
0.175171	0.246246	10.6027	
0.41687	0.247925	10.5504	
-0.26001	0.248065	10.5155	
-0.296021	0.249573	10.4632	
-0.251465	0.246222	10.4283	
-0.950317	0.248816	10.4109	
-1.02661	0.250903	10.3934	
-0.612793	0.251025	10.376	
-0.17395	0.250195	10.376	
0.0115967	0.248047	10.3934	
-0.170288	0.247369	10.4109	
0.424194	0.249005	10.4283	
0.0921631	0.244922	10.4457	
-0.0714111	0.237494	10.4806	
0.0427246	0.233868	10.498	
-0.281372	0.236279	10.5329	
-0.379639	0.236615	10.5504	
-0.232544	0.238208	10.5504	
-0.36499	0.238971	10.5678	
-0.298462	0.238922	10.5678	
-0.0177002	0.238141	10.5678	
-0.147095	0.234918	10.5678	
-0.0305176	0.231079	10.5678	
0.142212	0.227075	10.5678	
0.132446	0.22146	10.5678	
0.2948	0.217572	10.5678	
0.286255	0.216382	10.5678	
0.0335693	0.21347	10.5504	
0.00854492	0.212195	10.5329	
0.078125	0.212274	10.498	
-0.276489	0.214063	10.4806	
-0.0524902	0.213605	10.4283	
0.0268555	0.211505	10.3934	
0.101929	0.210083	10.3411	
0.20752	0.210327	10.2888	
0.164185	0.211542	10.2365	
0.501709	0.214423	10.1667	
0.653687	0.217572	10.1144	
-0.0219727	0.215411	10.0446	
0.0994873	0.215155	9.97489	
0.657959	0.217676	9.90513	
0.205688	0.21767	9.83538	
-0.389404	0.221228	9.76563	
-0.292969	0.223157	9.69587	
-0.241699	0.223798	9.64355	
-0.302734	0.225757	9.59124	
-0.614014	0.231793	9.53892	
-0.788574	0.239563	9.52148	
-0.373535	0.242889	9.48661	
0.0134277	0.24187	9.48661	
0.0646973	0.240479	9.48661	
0.308228	0.242346	9.48661	
-0.116577	0.242395	9.48661	
0.491333	0.244952	9.50405	
0.430298	0.246741	9.50405	
-0.0274658	0.246332	9.52148	
-0.267944	0.242035	9.53892	
-0.0860596	0.240979	9.55636	
-0.38269	0.244263	9.55636	
-0.413208	0.243622	9.5738	
-0.527344	0.24856	9.59124	
-0.00854492	0.247833	9.60868	
0.310669	0.250775	9.62612	
0.0469971	0.247711	9.64355	
0.229492	0.244177	9.66099	
0.0952148	0.241632	9.67843	
0.22644	0.240643	9.69587	
0.311279	0.24278	9.69587	
-0.0732422	0.241626	9.69587	
-0.0604248	0.241962	9.69587	
-0.2771	0.24472	9.69587	
-0.379639	0.247223	9.69587	
-0.378418	0.247418	9.69587	
0.140381	0.247333	9.67843	
0.322266	0.24895	9.67843	
0.3302	0.246448	9.66099	
0.216064	0.242871	9.64355	
0.194702	0.240558	9.62612	
0.418701	0.243951	9.59124	
0.380859	0.245496	9.5738	
-0.0500488	0.24577	9.53892	
0.105591	0.245703	9.50405	
0.202637	0.247266	9.46917	
0.128174	0.247711	9.43429	
0.245972	0.248248	9.39941	
0.0109863	0.246704	9.36454	
0.553589	0.252075	9.32966	
0.328979	0.253711	9.31222	
-0.0372314	0.25318	9.29478	
0.0476074	0.252814	9.25991	
0.514526	0.25545	9.24247	
0.284424	0.255786	9.22503	
-0.0732422	0.255408	9.22503	
-0.59082	0.2591	9.20759	
-0.212402	0.259326	9.20759	
0.0878906	0.260016	9.19015	
-0.098877	0.260852	9.20759	
-0.375977	0.261713	9.20759	
-0.444336	0.260382	9.22503	
-0.302734	0.259027	9.25991	
-0.279541	0.260071	9.29478	
-0.129395	0.257196	9.32966	
0.0158691	0.254755	9.38198	
0.231934	0.254114	9.43429	
-0.148926	0.253088	9.48661	
-0.261841	0.246204	9.55636	
0.320435	0.239142	9.60868	
0.811157	0.241125	9.66099	
0.475464	0.244141	9.69587	
0.517578	0.2492	9.73075	
-0.0683594	0.248181	9.76563	
0.10498	0.244989	9.8005	
0.488281	0.24895	9.81794	
-0.181885	0.250055	9.83538	
-0.544434	0.255072	9.85282	
-0.305786	0.255316	9.85282	
-0.323486	0.254755	9.87026	
-0.308228	0.255511	9.87026	
-0.142822	0.25329	9.87026	
0.315552	0.253461	9.87026	
0.615234	0.259436	9.87026	
0.388184	0.261847	9.87026	
-0.0274658	0.261816	9.87026	
0.462036	0.265015	9.85282	
0.164795	0.265338	9.85282	
0.144653	0.263837	9.85282	
0.0469971	0.261444	9.85282	
-0.176392	0.262872	9.85282	
-0.179443	0.264581	9.85282	
-0.203247	0.265833	9.85282	
0.0665283	0.263733	9.85282	
0.136719	0.264575	9.85282	
-0.125732	0.265564	9.85282	
0.148315	0.266028	9.87026	
0.211792	0.266071	9.87026	
-0.136108	0.26579	9.87026	
-0.250854	0.263281	9.8877	
0.178223	0.258527	9.8877	
0.136719	0.259674	9.90513	
-0.0189209	0.258868	9.92257	
-0.214844	0.254437	9.92257	
-0.110474	0.253485	9.94001	
0.236816	0.251959	9.94001	
0.10437	0.250073	9.95745	
0.0921631	0.248578	9.95745	
0.117188	0.246722	9.97489	
0.109863	0.241681	9.97489	
-0.247803	0.236273	9.97489	
0.00549316	0.232593	9.99233	
-0.113525	0.233594	9.99233	
-0.19165	0.234863	9.99233	
-0.124512	0.233026	9.99233	
-0.185547	0.233716	9.99233	
0.415649	0.232959	10.0098	
0.62439	0.2349	10.0098	
0.310669	0.237732	9.99233	
0.72998	0.242352	9.99233	
0.459595	0.246088	9.99233	
0.469971	0.24696	9.97489	
0.146484	0.244293	9.95745	
-0.174561	0.240765	9.94001	
-0.365601	0.244336	9.92257	
-0.613403	0.247363	9.90513	
-0.531616	0.252209	9.90513	
-0.631104	0.256226	9.8877	
-0.507202	0.260345	9.87026	
-0.228271	0.260364	9.87026	
0.164185	0.258893	9.87026	
0.390625	0.262067	9.8877	
0.536499	0.266827	9.8877	
0.516968	0.269226	9.90513	
0.00183105	0.265448	9.92257	
-0.0354004	0.262018	9.94001	
0.169067	0.262305	9.97489	
-0.0689697	0.259772	9.99233	
-0.266113	0.259131	10.0272	
-0.322876	0.260199	10.0446	
-0.339355	0.261646	10.0795	
0.0689697	0.258148	10.1144	
0.0115967	0.254456	10.1318	
-0.287476	0.25683	10.1493	
0.125122	0.257025	10.1842	
0.321655	0.258215	10.2016	
-0.0946045	0.25788	10.219	
-0.203247	0.257452	10.2365	
-0.267334	0.260016	10.2365	
0.393677	0.258417	10.2539	
0.498657	0.260114	10.2539	
0.131836	0.26106	10.2713	
0.20874	0.262671	10.2713	
0.826416	0.26579	10.2713	
0.665894	0.269604	10.2713	
0.331421	0.272186	10.2539	
0.0976563	0.267255	10.2539	
0.20874	0.267218	10.2539	
0.161743	0.267957	10.2365	
-0.194702	0.268915	10.2365	
-0.0598145	0.265753	10.219	
-0.317383	0.264484	10.219	
-0.751953	0.268976	10.219	
-0.315552	0.269336	10.2016	
-0.241699	0.270459	10.2016	
-0.397949	0.27428	10.2016	
0.067749	0.272638	10.219	
-0.109863	0.272247	10.219	
-0.52063	0.274835	10.2365	
-0.180054	0.273431	10.2539	
0.158081	0.266901	10.2713	
0.177002	0.263916	10.2888	
0.045166	0.259192	10.3062	
-0.223389	0.260742	10.3411	
0.0524902	0.260217	10.376	
-0.0634766	0.255969	10.3934	
-0.253906	0.256689	10.4283	
-0.133057	0.252576	10.4457	
0.149536	0.251013	10.4632	
0.0372314	0.248151	10.4806	
0.192261	0.246991	10.498	
0.205078	0.247614	10.5155	
0.0506592	0.244965	10.5155	
0.209351	0.240906	10.5329	
0.442505	0.241449	10.5329	
0	0.241174	10.5329	
0.396729	0.240521	10.5329	
0.300903	0.241882	10.5329	
0.135498	0.241791	10.5155	
0.078125	0.242102	10.498	
-0.0012207	0.24035	10.498	
0.244751	0.241003	10.4632	
-0.00915527	0.239063	10.4457	
0.187378	0.240271	10.4283	
0.784912	0.246753	10.3934	
0.532837	0.250824	10.3585	
0.010376	0.249445	10.3411	
0.0909424	0.248236	10.3062	
-0.19165	0.248792	10.2713	
-0.182495	0.248108	10.2539	
0.751343	0.253839	10.2365	
0.285034	0.255322	10.219	
-0.233765	0.257471	10.2016	
0.0439453	0.255762	10.2016	
-0.0622559	0.25528	10.2016	
-0.195923	0.254871	10.2016	
-0.45166	0.258344	10.219	
0.00427246	0.257465	10.2365	
-0.127563	0.257568	10.2713	
-0.806274	0.264532	10.3062	
-0.899658	0.271051	10.3585	
-0.502319	0.276019	10.4109	
-0.374756	0.278632	10.4806	
-0.415649	0.280872	10.5504	
-0.32959	0.282922	10.6376	
-0.19043	0.282971	10.7247	
0.164185	0.280457	10.8119	
-0.0354004	0.274567	10.8991	
-0.488892	0.276349	11.0038	
-0.195313	0.271002	11.091	
0.128784	0.267694	11.1607	
-0.0158691	0.263153	11.2305	
0.090332	0.262592	11.3002	
0.0189209	0.261035	11.3525	
0.250244	0.259882	11.4049	
0.288086	0.256628	11.4397	
0.117798	0.25249	11.4746	
-0.022583	0.246405	11.492	
0.292969	0.244263	11.5095	
0.292969	0.24491	11.5095	
0.302124	0.246289	11.5095	
0.335693	0.24574	11.5095	
0.231934	0.242694	11.492	
0.474854	0.242273	11.4746	
0.334473	0.245599	11.4572	
0.200806	0.247253	11.4223	
0.137939	0.246942	11.3874	
0.154419	0.247797	11.3351	
0.236206	0.247498	11.2828	
-0.0878906	0.245148	11.2305	
-0.13916	0.243146	11.1607	
-0.122681	0.243683	11.091	
0.247803	0.246045	11.0212	
0.119019	0.24436	10.9515	
0.0622559	0.243732	10.8817	
0.168457	0.2422	10.8119	
0.219727	0.243451	10.7422	
0.0634766	0.242053	10.6724	
-0.0494385	0.239874	10.6201	
-0.0848389	0.236786	10.5504	
-0.020752	0.232007	10.498	
-0.0457764	0.231146	10.4457	
-0.583496	0.234894	10.4109	
-0.509033	0.23172	10.3585	
-0.254517	0.227606	10.3411	
-0.431519	0.228607	10.3062	
-0.291748	0.230548	10.2888	
-0.0134277	0.228595	10.2713	
0.281372	0.229791	10.2539	
0.302734	0.230872	10.2365	
-0.0488281	0.230762	10.2365	
0.153809	0.229126	10.2365	
0.230103	0.223907	10.219	
0.246582	0.223218	10.219	
0.00305176	0.220831	10.219	
-0.346069	0.220312	10.2365	
-0.0866699	0.220502	10.2365	
-0.291138	0.222314	10.219	
-0.465088	0.221759	10.219	
-0.0378418	0.220337	10.219	
0.170898	0.220465	10.219	
0.393677	0.222632	10.219	
0.651245	0.228693	10.2016	
0.323486	0.229694	10.2016	
0.127563	0.230444	10.1842	
0.2948	0.232758	10.1842	
0.210571	0.232324	10.1667	
-0.305176	0.234045	10.1493	
-0.193481	0.234485	10.1318	
-0.383911	0.237952	10.1318	
-0.515747	0.241187	10.1144	
-0.43335	0.243469	10.097	
-0.288086	0.245844	10.0795	
0.214844	0.245898	10.0621	
0.458984	0.246063	10.0621	
0.480957	0.250873	10.0446	
0.925293	0.256158	10.0272	
0.616455	0.259314	10.0272	
0.339966	0.261359	10.0098	
0.0152588	0.26073	9.99233	
-0.0146484	0.260864	9.97489	
-0.0854492	0.259271	9.97489	
-0.490723	0.264087	9.95745	
-0.739136	0.269604	9.94001	
-0.689087	0.268646	9.94001	
-0.487061	0.268188	9.94001	
-0.504761	0.273132	9.94001	
-0.19043	0.274127	9.94001	
-0.169678	0.273907	9.95745	
0.195923	0.274042	9.97489	
0.305176	0.26958	9.99233	
0.149536	0.268225	10.0098	
-0.065918	0.266547	10.0272	
0.313721	0.269244	10.0446	
0.116577	0.269788	10.0621	
-0.0128174	0.267957	10.0795	
-0.0463867	0.263904	10.0795	
0.0115967	0.263977	10.097	
0.420532	0.266907	10.097	
0.437012	0.263214	10.097	
0.0708008	0.254926	10.097	
0.0262451	0.250165	10.0795	
-0.120239	0.24762	10.0621	
0.344238	0.246906	10.0621	
0.299072	0.2466	10.0272	
-0.130005	0.245996	10.0098	
0.0335693	0.24469	9.97489	
-0.090332	0.245239	9.95745	
-0.247192	0.242822	9.92257	
0.163574	0.242505	9.8877	
0.0500488	0.241718	9.85282	
-0.162964	0.243188	9.81794	
0.107422	0.243359	9.78306	
0.118408	0.244354	9.74819	
0.110474	0.242957	9.71331	
0.174561	0.241821	9.67843	
0.34729	0.244116	9.64355	
0.0628662	0.244519	9.62612	
0.526733	0.246857	9.59124	
0.493774	0.248865	9.55636	
-0.309448	0.248938	9.53892	
-0.291138	0.248492	9.52148	
-0.406494	0.250238	9.48661	
-0.256958	0.248059	9.46917	
-0.43335	0.249048	9.46917	
-0.86731	0.255713	9.45173	
-0.460815	0.258942	9.45173	
-0.265503	0.260052	9.43429	
-0.0616455	0.258307	9.43429	
0.336304	0.260791	9.43429	
0.558472	0.264984	9.45173	
0.803223	0.27179	9.45173	
0.22583	0.27157	9.45173	
0.238037	0.27276	9.46917	
0.346069	0.275598	9.48661	
-0.0488281	0.274402	9.48661	
-0.310669	0.275311	9.50405	
-0.3302	0.277979	9.50405	
-0.683594	0.28432	9.52148	
-0.510864	0.28858	9.52148	
-0.231934	0.290692	9.53892	
-0.2771	0.293005	9.53892	
-0.0836182	0.288007	9.53892	
0.3302	0.286218	9.55636	
0.26123	0.286285	9.55636	
0.175781	0.283728	9.55636	
0.301514	0.283826	9.55636	
0.223999	0.285931	9.5738	
0.298462	0.286102	9.55636	
0.322266	0.286298	9.55636	
-0.20874	0.287897	9.55636	
0.022583	0.286584	9.53892	
0.124512	0.285529	9.53892	
-0.0378418	0.283441	9.52148	
-0.0115967	0.283527	9.50405	
-0.236206	0.282428	9.46917	
0.455322	0.286115	9.45173	
0.52124	0.288416	9.43429	
0.300293	0.286768	9.39941	
0.536499	0.291754	9.38198	
0.318604	0.293231	9.3471	
0.106201	0.290356	9.31222	
0.108643	0.28493	9.29478	
0.00549316	0.28175	9.25991	
-0.375366	0.284229	9.24247	
-0.554199	0.286823	9.22503	
-0.333252	0.288049	9.20759	
-0.275269	0.28775	9.19015	
-0.343628	0.289252	9.17271	
-0.0683594	0.286096	9.17271	
-0.0390625	0.281329	9.17271	
0.113525	0.278131	9.17271	
0.224609	0.277496	9.17271	
0.159302	0.276941	9.17271	
-0.10376	0.273389	9.19015	
-0.402222	0.272601	9.19015	
-0.199585	0.265344	9.20759	
-0.0518799	0.259698	9.20759	
-0.169067	0.25799	9.22503	
-0.0665283	0.258502	9.22503	
-0.354004	0.261896	9.24247	
0.00976563	0.261139	9.25991	
0.192871	0.25816	9.25991	
0.0604248	0.251373	9.27734	
-0.0238037	0.24472	9.29478	
0.200806	0.241858	9.29478	
0.0372314	0.237183	9.29478	
0.114136	0.23642	9.31222	
0.160522	0.236328	9.31222	
0.323486	0.237604	9.31222	
0.529785	0.23985	9.31222	
0.222168	0.240576	9.29478	
-0.170898	0.241626	9.29478	
0.0683594	0.239172	9.27734	
0.254517	0.240552	9.27734	
0.0561523	0.240985	9.25991	
-0.180664	0.242328	9.24247	
-0.356445	0.245776	9.22503	
-0.00549316	0.241626	9.20759	
0.12207	0.238477	9.19015	
-0.125122	0.23902	9.17271	
0.26001	0.241357	9.13783	
0.524902	0.245404	9.10296	
0.324097	0.245203	9.08552	
0.220337	0.244415	9.05064	
0.0164795	0.24328	9.0332	
0.227051	0.245215	9.01576	
-0.0012207	0.244324	8.98089	
-0.490112	0.246753	8.98089	
-0.367432	0.248792	8.96345	
-0.189209	0.250183	8.96345	
-0.443726	0.252991	8.96345	
-0.224609	0.254163	8.96345	
-0.159912	0.254578	8.96345	
-0.12085	0.254681	8.98089	
0.12085	0.254144	8.98089	
0.150146	0.252173	8.99833	
-0.0842285	0.252386	8.99833	
0.0604248	0.247723	8.99833	
-0.0671387	0.243457	9.01576	
-0.0274658	0.240637	9.01576	
0.0976563	0.238702	9.01576	
0.128784	0.235925	9.0332	
0.199585	0.235352	9.0332	
0.065918	0.231677	9.05064	
-0.140991	0.224414	9.05064	
0.0994873	0.220801	9.06808	
-0.0152588	0.218298	9.06808	
-0.10437	0.218726	9.08552	
-0.281372	0.218176	9.08552	
-0.422974	0.216821	9.10296	
-0.0616455	0.209406	9.10296	
0.0427246	0.207574	9.10296	
0.0421143	0.205615	9.10296	
0.26001	0.204755	9.10296	
0.441895	0.208685	9.10296	
0.577393	0.211353	9.10296	
0.403442	0.212085	9.10296	
0.424805	0.209497	9.08552	
0.292969	0.207318	9.08552	
0.204468	0.207043	9.08552	
-0.0238037	0.20451	9.06808	
-0.519409	0.208868	9.06808	
-0.0897217	0.206464	9.05064	
-0.0305176	0.204156	9.05064	
-0.316772	0.205566	9.0332	
-0.26001	0.205151	9.01576	
0.188599	0.204797	9.01576	
0.383301	0.205646	8.99833	
0.282593	0.205249	8.99833	
-0.128174	0.204443	8.99833	
0.12085	0.205426	8.99833	
0.264282	0.206824	8.99833	
-0.267334	0.209119	8.99833	
-0.443726	0.21344	8.99833	
-0.647583	0.217554	9.01576	
-0.13855	0.214386	9.0332	
-0.0311279	0.209485	9.06808	
-0.281982	0.209302	9.08552	
-0.419312	0.20813	9.13783	
0.147705	0.206421	9.17271	
0.183105	0.20719	9.20759	
0.0268555	0.206372	9.25991	
-0.286865	0.209186	9.29478	
0.0354004	0.205786	9.32966	
-0.0140381	0.200385	9.3471	
0.0177002	0.197229	9.38198	
-0.192871	0.196405	9.39941	
0.00427246	0.193011	9.39941	
0.0189209	0.192517	9.41685	
0.117188	0.193298	9.41685	
0.253906	0.194702	9.41685	
0.305176	0.195508	9.41685	
0.303345	0.196948	9.41685	
0.0878906	0.19679	9.41685	
0.187378	0.194641	9.41685	
0.545044	0.198096	9.41685	
0.354004	0.201117	9.41685	
-0.160522	0.201031	9.39941	
-0.268555	0.203052	9.39941	
-0.222168	0.201733	9.38198	
0.0213623	0.201849	9.36454	
0.0518799	0.200439	9.3471	
0.128174	0.201117	9.32966	
0.13855	0.202264	9.31222	
0.662842	0.206885	9.27734	
0.446167	0.210974	9.25991	
0.137329	0.211206	9.24247	
-0.130615	0.210907	9.20759	
0.0512695	0.208185	9.19015	
0.222778	0.205115	9.17271	
-0.351563	0.206409	9.15527	
-0.756226	0.212262	9.15527	
-0.529175	0.21687	9.13783	
-0.269775	0.217023	9.13783	
-0.245361	0.218915	9.13783	
0.152588	0.218634	9.13783	
-0.176392	0.216833	9.13783	
0.00488281	0.216827	9.15527	
0.249634	0.218103	9.15527	
-0.101929	0.217871	9.17271	
-0.292969	0.218201	9.19015	
-0.078125	0.213733	9.20759	
-0.166016	0.212152	9.22503	
-0.287476	0.212823	9.25991	
-0.344849	0.216107	9.27734	
0.12085	0.215045	9.29478	
0.339966	0.218433	9.31222	
0.184326	0.215375	9.32966	
0.202637	0.213727	9.3471	
0.214233	0.213977	9.3471	
0.13916	0.210931	9.36454	
0.180054	0.210486	9.36454	
-0.0286865	0.209174	9.36454	
0.0323486	0.208289	9.36454	
0.0878906	0.207959	9.36454	
-0.183105	0.208289	9.36454	
-0.339355	0.21084	9.36454	
0.0335693	0.210571	9.36454	
-0.0164795	0.210065	9.36454	
-0.00366211	0.209827	9.36454	
0.244751	0.211298	9.36454	
0.378418	0.213794	9.36454	
0.571899	0.217517	9.3471	
0.474854	0.221606	9.3471	
0.010376	0.2203	9.3471	
0.265503	0.22196	9.3471	
0.339355	0.225201	9.32966	
0.010376	0.224261	9.32966	
-0.232544	0.223773	9.31222	
-0.408325	0.223627	9.31222	
0.215454	0.225165	9.29478	
-0.0854492	0.225592	9.29478	
-0.419922	0.22937	9.29478	
-0.188599	0.228656	9.29478	
-0.217285	0.22641	9.29478	
0.192871	0.222565	9.29478	
-0.0201416	0.218732	9.29478	
-0.300293	0.217487	9.31222	
-0.140381	0.215961	9.31222	
0.0738525	0.214655	9.32966	
0.00976563	0.214514	9.3471	
-0.321045	0.212531	9.36454	
0.161133	0.213245	9.38198	
0.414429	0.217084	9.39941	
-0.122681	0.215143	9.41685	
-0.0469971	0.213013	9.45173	
-0.211182	0.213239	9.48661	
0.0317383	0.209723	9.52148	
-0.0848389	0.207745	9.55636	
-0.376587	0.210229	9.59124	
-0.291748	0.211938	9.62612	
-0.171509	0.211011	9.66099	
-0.181274	0.21015	9.69587	
-0.0457764	0.206171	9.73075	
-0.0518799	0.200214	9.76563	
0.274658	0.201575	9.78306	
0.596313	0.207227	9.81794	
0.22522	0.206659	9.85282	
-0.0579834	0.203046	9.87026	
0.291138	0.20448	9.8877	
0.153809	0.204187	9.90513	
0.0183105	0.204102	9.90513	
-0.356445	0.204797	9.92257	
-0.299072	0.207434	9.92257	
-0.135498	0.208649	9.92257	
-0.0750732	0.209222	9.92257	
-0.303955	0.210333	9.90513	
0.203247	0.212323	9.90513	
0.358887	0.215723	9.90513	
0.194702	0.216498	9.8877	
0.50415	0.219	9.87026	
0.616455	0.222113	9.85282	
0.616455	0.225244	9.81794	
0.456543	0.228931	9.8005	
-0.165405	0.228711	9.76563	
-0.195313	0.225214	9.74819	
0.0714111	0.222388	9.71331	
-0.122681	0.222009	9.67843	
-0.497437	0.224298	9.66099	
-0.684204	0.228918	9.64355	
-0.202637	0.230731	9.62612	
0.256348	0.232776	9.62612	
0.318604	0.23468	9.60868	
0.283813	0.236133	9.60868	
0.272217	0.232227	9.60868	
0.197144	0.229736	9.60868	
-0.00610352	0.228424	9.60868	
-0.355225	0.23067	9.62612	
-0.218506	0.232343	9.62612	
-0.175171	0.231866	9.62612	
-0.00183105	0.228369	9.62612	
0.22583	0.223065	9.62612	
0.408325	0.221857	9.62612	
0.299683	0.222156	9.62612	
0.83374	0.22804	9.64355	
0.170898	0.228223	9.64355	
-0.294189	0.229401	9.66099	
-0.337524	0.232727	9.67843	
-0.400391	0.234235	9.69587	
-0.859375	0.241809	9.71331	
-0.826416	0.247144	9.74819	
-0.620728	0.25257	9.8005	
-0.725098	0.25816	9.83538	
-0.405884	0.259344	9.8877	
-0.0579834	0.256476	9.94001	
0.176392	0.257031	9.99233	
0.205078	0.255682	10.0621	
-0.045166	0.254291	10.097	
-0.147095	0.253735	10.1493	
0.12207	0.252814	10.1842	
0.15686	0.252991	10.219	
0.0805664	0.251996	10.2539	
0.180054	0.25351	10.2713	
0.119019	0.254376	10.2888	
0.339355	0.256891	10.2888	
0.36499	0.25871	10.2888	
0.0231934	0.255548	10.2888	
0.101929	0.256232	10.2888	
0.275879	0.258826	10.2888	
-0.00366211	0.258826	10.2713	
0.255127	0.258929	10.2539	
0.144653	0.256592	10.2365	
0.41687	0.255042	10.219	
0.551758	0.255811	10.1842	
0.19104	0.257617	10.1493	
-0.0299072	0.255261	10.1144	
0.222778	0.254095	10.0621	
0.0994873	0.254987	10.0098	
0.244141	0.255103	9.95745	
0.0134277	0.251154	9.90513	
0.0543213	0.249542	9.85282	
0.241089	0.251099	9.81794	
-0.203857	0.248938	9.76563	
-0.188599	0.248938	9.73075	
0.0250244	0.247015	9.67843	
0.215454	0.247241	9.64355	
0.0488281	0.247528	9.62612	
-0.455933	0.249084	9.59124	
-0.846558	0.256146	9.5738	
0.159302	0.257001	9.55636	
0.480347	0.261707	9.53892	
0.0695801	0.259192	9.52148	
-0.055542	0.258136	9.52148	
0.198364	0.255975	9.52148	
0.307617	0.257825	9.52148	
0.0830078	0.258185	9.52148	
-0.591431	0.261987	9.53892	
-0.223999	0.26391	9.53892	
-0.0939941	0.264001	9.55636	
-0.309448	0.26333	9.5738	
0.0866699	0.261279	9.59124	
0.00427246	0.259607	9.60868	
-0.128784	0.259082	9.64355	
0.179443	0.260419	9.67843	
-0.210571	0.262006	9.71331	
-0.216675	0.261426	9.74819	
0.0201416	0.255664	9.8005	
-0.418701	0.257599	9.83538	
-0.71167	0.264136	9.87026	
-0.338745	0.264612	9.90513	
-0.255127	0.265625	9.94001	
-0.0909424	0.266351	9.97489	
0.175171	0.264539	10.0098	
0.202026	0.263568	10.0272	
0.628662	0.2685	10.0621	
0.228271	0.270032	10.0795	
-0.03479	0.26734	10.097	
0.0189209	0.265497	10.1144	
0.123291	0.263141	10.1318	
-0.0769043	0.261963	10.1493	
-0.0463867	0.257385	10.1493	
-0.181274	0.253033	10.1493	
0.0866699	0.247736	10.1493	
0.219727	0.245367	10.1493	
0.088501	0.244598	10.1493	
0.090332	0.243549	10.1493	
0.46875	0.247522	10.1493	
0.368042	0.249976	10.1318	
0.192261	0.246924	10.1144	
0.130615	0.241388	10.097	
0.322876	0.24259	10.0795	
0.264893	0.242676	10.0446	
-0.101929	0.240509	10.0098	
-0.326538	0.240936	9.97489	
0.272217	0.240936	9.94001	
0.132446	0.240289	9.90513	
0.393066	0.244159	9.8877	
-0.0726318	0.241333	9.85282	
0.0860596	0.240009	9.81794	
0.106812	0.239325	9.78306	
-0.0482178	0.239789	9.76563	
-0.369873	0.241229	9.74819	
-0.124512	0.238391	9.73075	
-0.184937	0.237244	9.71331	
-0.454102	0.233447	9.69587	
-0.327759	0.235016	9.67843	
-0.223389	0.234308	9.67843	
0.164795	0.232581	9.66099	
0.356445	0.232141	9.66099	
-0.123291	0.22478	9.66099	
-0.0915527	0.217432	9.66099	
0.345459	0.214679	9.66099	
0.19104	0.209338	9.66099	
-0.123291	0.206512	9.66099	
-0.557861	0.211511	9.66099	
-0.164185	0.211389	9.66099	
0.0970459	0.210309	9.66099	
0.235596	0.212213	9.66099	
-0.135498	0.212097	9.66099	
-0.200195	0.212878	9.66099	
-0.116577	0.212476	9.66099	
-0.0311279	0.211981	9.64355	
-0.0872803	0.211053	9.64355	
-0.19165	0.21178	9.66099	
-0.0915527	0.209302	9.66099	
-0.205078	0.207703	9.66099	
-0.31311	0.210602	9.66099	
0.0805664	0.210388	9.67843	
0.177612	0.209406	9.67843	
0.0482178	0.209851	9.69587	
0.144043	0.20874	9.69587	
0.162354	0.208917	9.69587	
0.245972	0.207208	9.71331	
0.162964	0.20332	9.71331	
-0.0457764	0.201868	9.69587	
0.0836182	0.202405	9.69587	
0.282593	0.203003	9.67843	
0.0482178	0.20249	9.67843	
0.197144	0.20202	9.66099	
0.117798	0.203064	9.64355	
0.300903	0.20553	9.62612	
0.525513	0.208374	9.59124	
-0.00793457	0.206415	9.55636	
0.182495	0.206354	9.53892	
0.74646	0.213568	9.50405	
0.427856	0.215692	9.45173	
-0.193481	0.217139	9.41685	
-0.471191	0.217291	9.38198	
0.0646973	0.209473	9.3471	
0.184937	0.209729	9.29478	
-0.0872803	0.205798	9.25991	
-0.776367	0.212866	9.22503	
-0.34729	0.215784	9.19015	
0.119629	0.214996	9.17271	
0.563354	0.217554	9.15527	
0.621948	0.222943	9.1204	
0.0683594	0.217712	9.1204	
-0.310669	0.218579	9.10296	
0.421753	0.221857	9.10296	
-0.157471	0.220337	9.10296	
-0.541382	0.224884	9.10296	
-0.166016	0.226501	9.10296	
-0.518188	0.230396	9.13783	
-0.714111	0.235742	9.15527	
-0.643921	0.240076	9.19015	
-0.31189	0.241028	9.22503	
-0.142822	0.242255	9.27734	
-0.057373	0.238641	9.32966	
-0.146484	0.23299	9.38198	
0.012207	0.229724	9.43429	
-0.0769043	0.227942	9.48661	
-0.0622559	0.227655	9.52148	
0.250854	0.228412	9.5738	
0.231323	0.228705	9.60868	
0.313721	0.225555	9.64355	
0.0726318	0.223999	9.66099	
-0.0402832	0.224054	9.67843	
0.162354	0.225488	9.69587	
0.164795	0.225903	9.71331	
-0.0775146	0.225909	9.71331	
-0.241699	0.227863	9.71331	
-0.223389	0.228284	9.71331	
0.0671387	0.228088	9.71331	
0.282593	0.228717	9.69587	
0.358887	0.231421	9.67843	
0.529175	0.235809	9.67843	
0.899658	0.240118	9.64355	
0.740356	0.243842	9.62612	
0.196533	0.243884	9.59124	
-0.182495	0.244403	9.55636	
0.202026	0.243195	9.52148	
0.12207	0.241766	9.48661	
-0.52002	0.245947	9.45173	
-0.715942	0.249841	9.39941	
-0.267334	0.249792	9.36454	
0.0921631	0.24939	9.3471	
0.224609	0.247705	9.31222	
0.501099	0.25199	9.27734	
0.674438	0.257874	9.25991	
0.518188	0.261987	9.24247	
0.232544	0.263831	9.22503	
-0.127563	0.261407	9.22503	
-0.355835	0.263721	9.20759	
-0.45166	0.266388	9.19015	
-0.9729	0.271576	9.19015	
-0.917969	0.277478	9.19015	
-0.982056	0.285065	9.20759	
-0.554199	0.288959	9.22503	
-0.24231	0.287817	9.24247	
-0.172119	0.288306	9.27734	
-0.0305176	0.287695	9.31222	
0.274658	0.286987	9.3471	
0.250854	0.287585	9.39941	
0.20813	0.288434	9.43429	
0.111084	0.283966	9.46917	
0.267334	0.284998	9.48661	
0.407104	0.288098	9.50405	
0.274048	0.288483	9.52148	
0.192261	0.28905	9.53892	
0.457764	0.291626	9.53892	
0.648804	0.296948	9.53892	
0.494385	0.301581	9.53892	
0.316162	0.30387	9.53892	
0.286865	0.304822	9.53892	
0.180664	0.305713	9.52148	
0.19104	0.305573	9.50405	
0.0854492	0.303296	9.46917	
0.131226	0.303802	9.43429	
0.168457	0.303711	9.39941	
-0.0268555	0.303497	9.3471	
-0.134888	0.303406	9.29478	
-0.20813	0.303864	9.22503	
-0.032959	0.301733	9.15527	
-0.0189209	0.300293	9.08552	
-0.134888	0.301184	8.99833	
-0.357666	0.303925	8.89369	
-0.320435	0.304303	8.8065	
-0.422363	0.308044	8.70187	
-0.31189	0.309192	8.59724	
-0.391846	0.311932	8.49261	
-0.210571	0.311029	8.38797	
-0.0177002	0.305951	8.24847	
-0.188599	0.307758	8.1264	
-0.369263	0.309625	7.98689	
-0.0390625	0.302551	7.8125	
0.111694	0.29939	7.65555	
0.148315	0.298938	7.46373	
0.00732422	0.294299	7.28934	
-0.291748	0.29657	7.09752	
0.211792	0.296838	6.90569	
0.214233	0.298108	6.71387	
-0.0738525	0.291083	6.53948	
0.0592041	0.288202	6.34766	
0.148315	0.288489	6.19071	
-0.120239	0.284058	6.01632	
-0.19043	0.279742	5.85938	
0.088501	0.279944	5.71987	
0.3302	0.280139	5.56292	
0.526733	0.281189	5.40597	
0.158691	0.281201	5.24902	
0.268555	0.278473	5.09208	
0.267334	0.279486	4.95257	
0.193481	0.276239	4.79562	
0.0469971	0.269568	4.65611	
-0.109253	0.264221	4.53404	
-0.168457	0.262787	4.41197	
-0.0842285	0.262201	4.2899	
-0.324707	0.264874	4.16783	
-0.545044	0.26886	4.0632	
-0.227661	0.271014	3.95857	
-0.10376	0.271283	3.85393	
-0.109253	0.271753	3.7493	
-0.0567627	0.269812	3.64467	
-0.126953	0.268768	3.55748	
0.106812	0.266699	3.47028	
0.252075	0.268494	3.36565	
-0.0775146	0.268866	3.27846	
0.0964355	0.268207	3.19127	
0.114746	0.267706	3.10407	
-0.00732422	0.267004	3.01688	
0.171509	0.266302	2.92969	
-0.153809	0.265607	2.84249	
-0.0537109	0.265472	2.77274	
0.111084	0.263757	2.70299	
-0.0726318	0.260895	2.63323	
-0.145874	0.257062	2.58092	
0.115967	0.249225	2.51116	
0.0531006	0.242352	2.45884	
