avlc1-L02
Graph Created on: 2024-07-22 12:03:48.823
Recording on: 2024-07-22 12:08:14.680
2 msec/sample
3 channels
EMG
mV
Integrated EMG (est.)
mV-sec
Clench Force
kg
CH1	CH40	CH41	
58834 samples	58834 samples	58834 samples	
0	0	0.139509	
0.0341797	0.000341797	0.139509	
0.0732422	0.00107422	0.139509	
-0.00610352	0.00113525	0.139509	
0.0109863	0.00124512	0.139509	
0.0360107	0.00160522	0.139509	
0.00915527	0.00169678	0.139509	
0.0476074	0.00217285	0.139509	
-0.0231934	0.00240479	0.139509	
0.0231934	0.00263672	0.139509	
0.0689697	0.00332642	0.139509	
0.0299072	0.00362549	0.139509	
-0.00244141	0.0036499	0.139509	
0.0384521	0.00403442	0.139509	
0.0415039	0.00444946	0.139509	
0.0469971	0.00491943	0.139509	
0.00549316	0.00497437	0.139509	
-0.00183105	0.00499268	0.139509	
0.0421143	0.00541382	0.139509	
0.0439453	0.00585327	0.139509	
-0.0152588	0.00600586	0.139509	
0.0439453	0.00644531	0.139509	
0.0445557	0.00689087	0.139509	
0.0183105	0.00707397	0.139509	
0.0537109	0.00761108	0.139509	
0.00549316	0.00766602	0.139509	
0.0396729	0.00806274	0.139509	
0.0683594	0.00874634	0.139509	
0	0.00874634	0.139509	
0.0231934	0.00897827	0.139509	
0.03479	0.00932617	0.139509	
0.00671387	0.00939331	0.12207	
0.0640869	0.0100342	0.12207	
-0.00427246	0.0100769	0.12207	
0.00915527	0.0101685	0.12207	
0.0579834	0.0107483	0.12207	
0.0262451	0.0110107	0.139509	
-0.0164795	0.0111755	0.139509	
0.0482178	0.0116577	0.139509	
0.0384521	0.0120422	0.139509	
0.0415039	0.0124573	0.139509	
-0.0280762	0.012738	0.139509	
0.00549316	0.012793	0.139509	
0.0543213	0.0133362	0.139509	
0.0250244	0.0135864	0.139509	
-0.0463867	0.0140503	0.139509	
0.0183105	0.0142334	0.139509	
0.0201416	0.0144348	0.139509	
0.00854492	0.0145203	0.139509	
0.0341797	0.0148621	0.139509	
-0.0195313	0.0150574	0.139509	
0.0201416	0.0152588	0.139509	
0.0592041	0.0158508	0.139509	
-0.00854492	0.0159363	0.139509	
0.00976563	0.0160339	0.139509	
0.0415039	0.016449	0.139509	
0.0183105	0.0166321	0.139509	
0.0311279	0.0169434	0.139509	
-0.0213623	0.017157	0.139509	
0.0238037	0.017395	0.139509	
0.0604248	0.0179993	0.139509	
0.0408936	0.0184082	0.139509	
-0.00732422	0.0184814	0.139509	
0.0250244	0.0187317	0.139509	
0.0286865	0.0190186	0.139509	
0.0531006	0.0195496	0.139509	
-0.0231934	0.0197815	0.12207	
-0.00976563	0.0198792	0.12207	
0.0280762	0.0201599	0.12207	
0.0335693	0.0204956	0.12207	
-0.0439453	0.0209351	0.12207	
0.00976563	0.0210327	0.12207	
0.0299072	0.0213318	0.12207	
0.012207	0.0214539	0.12207	
0.0445557	0.0218994	0.12207	
0.00305176	0.0219299	0.139509	
0.0299072	0.022229	0.139509	
0.0732422	0.0229614	0.139509	
0.00427246	0.0230042	0.139509	
0.0128174	0.0231323	0.139509	
0.0360107	0.0234924	0.139509	
0.00610352	0.0235535	0.139509	
0.0384521	0.023938	0.139509	
-0.0244141	0.0241821	0.139509	
0.00305176	0.0242126	0.139509	
0.0488281	0.0247009	0.12207	
0.0158691	0.0248596	0.12207	
-0.00854492	0.0249451	0.12207	
0.0378418	0.0253235	0.12207	
0.0323486	0.025647	0.139509	
0.0335693	0.0259827	0.139509	
-0.00854492	0.0260681	0.139509	
0.0134277	0.0262024	0.139509	
0.0396729	0.0265991	0.12207	
0.0469971	0.0270691	0.12207	
-0.0439453	0.0275085	0.12207	
0.0140381	0.0276489	0.12207	
0.0476074	0.028125	0.12207	
0.0115967	0.028241	0.12207	
0.0280762	0.0285217	0.12207	
-0.00976563	0.0286194	0.12207	
0.0219727	0.0284973	0.12207	
0.0714111	0.028479	0.12207	
-0.00549316	0.0284729	0.12207	
0.0115967	0.028479	0.12207	
0.0305176	0.0284241	0.12207	
0	0.0283325	0.12207	
0.0463867	0.0283203	0.12207	
-0.0189209	0.0282776	0.12207	
0.0146484	0.0281921	0.12207	
0.0561523	0.028064	0.12207	
0.0268555	0.0280334	0.12207	
-0.00488281	0.0280579	0.12207	
0.0408936	0.0280823	0.12207	
0.0317383	0.0279846	0.12207	
0.0415039	0.0279297	0.12207	
0.00488281	0.0279236	0.12207	
-0.0012207	0.0279175	0.12207	
0.0354004	0.0278503	0.139509	
0.0445557	0.0278564	0.139509	
-0.0335693	0.0280396	0.139509	
0.0286865	0.027887	0.139509	
0.0579834	0.0280212	0.139509	
0.0317383	0.0281555	0.139509	
0.0592041	0.0282104	0.139509	
0.0152588	0.0283081	0.139509	
0.0219727	0.0281311	0.139509	
0.0769043	0.0282166	0.139509	
-0.0152588	0.0283691	0.139509	
0.00976563	0.0282349	0.12207	
0.0177002	0.028064	0.12207	
-0.0439453	0.0284363	0.12207	
0.0286865	0.0280823	0.12207	
-0.0390625	0.0284302	0.12207	
-0.0201416	0.02854	0.12207	
0.0152588	0.0281128	0.12207	
-0.00976563	0.027948	0.12207	
-0.000610352	0.0277893	0.139509	
0.0402832	0.02771	0.139509	
0.0244141	0.0275696	0.139509	
0.0262451	0.027417	0.139509	
0.00793457	0.0272156	0.139509	
-0.00488281	0.0272095	0.139509	
0.0231934	0.0268982	0.139509	
0.0335693	0.0269836	0.139509	
-0.0488281	0.0270081	0.139509	
-0.00183105	0.0268433	0.12207	
-0.012207	0.0267639	0.12207	
-0.0305176	0.0269836	0.12207	
-0.00366211	0.0266785	0.12207	
-0.0305176	0.0267883	0.12207	
0.020752	0.0267944	0.12207	
0.0469971	0.0266724	0.12207	
-0.0494385	0.0270813	0.12207	
-0.012207	0.0271057	0.12207	
0.0482178	0.0271729	0.139509	
0.0189209	0.027179	0.139509	
0.0195313	0.027063	0.139509	
-0.0616455	0.0274658	0.139509	
-0.00793457	0.0273071	0.139509	
-0.000610352	0.026709	0.139509	
-0.0201416	0.0265015	0.139509	
-0.0531006	0.0269592	0.139509	
-0.0183105	0.0268921	0.139509	
0.0140381	0.0267456	0.139509	
0.00671387	0.0262817	0.139509	
0.00671387	0.0261169	0.139509	
0.0128174	0.0261475	0.139509	
0.0134277	0.026001	0.139509	
0.0354004	0.0260193	0.139509	
0.0506592	0.0260864	0.139509	
0.067749	0.0266663	0.139509	
0.0134277	0.0265015	0.139509	
0.0720215	0.0270996	0.139509	
0.0756836	0.0274109	0.139509	
-0.03479	0.0277283	0.139509	
0.0476074	0.0279053	0.139509	
0.0592041	0.0277649	0.139509	
-0.0195313	0.0279175	0.139509	
0.00183105	0.0278076	0.139509	
0.00793457	0.0275269	0.139509	
-0.0726318	0.0281921	0.139509	
0.0366211	0.0281738	0.139509	
0.0286865	0.0282166	0.139509	
0.0402832	0.0285889	0.139509	
0.112305	0.0292236	0.139509	
0.00305176	0.0290955	0.139509	
-0.150757	0.0305176	0.139509	
0.00427246	0.0301819	0.139509	
-0.000610352	0.0298645	0.139509	
-0.0354004	0.0298828	0.139509	
-0.114746	0.0309448	0.139509	
-0.12085	0.032019	0.139509	
0.0946045	0.0325684	0.139509	
-0.0305176	0.0324036	0.139509	
-0.143433	0.0333984	0.139509	
0.0311279	0.0335693	0.139509	
0.12146	0.0343079	0.139509	
0.0305176	0.0344971	0.139509	
-0.0146484	0.0343628	0.139509	
-0.0463867	0.034729	0.139509	
0.0231934	0.0347412	0.139509	
-0.0585938	0.034613	0.139509	
-0.022583	0.0347839	0.139509	
-0.0280762	0.0349487	0.139509	
-0.0128174	0.0347717	0.139509	
-0.0286865	0.0350586	0.139509	
0.0683594	0.0352783	0.139509	
0.0152588	0.0352417	0.139509	
-0.00610352	0.0351563	0.156948	
0.0378418	0.0349731	0.156948	
0.0140381	0.034845	0.156948	
-0.0164795	0.0349609	0.156948	
0.012207	0.0346741	0.156948	
-0.022583	0.0345825	0.139509	
-0.0268555	0.034436	0.139509	
-0.0634766	0.035022	0.139509	
-0.0775146	0.0357849	0.139509	
0.0787354	0.0362183	0.139509	
0.106812	0.0368408	0.139509	
-0.0463867	0.036969	0.139509	
-0.0354004	0.0370361	0.139509	
0.122681	0.0376831	0.139509	
0.0286865	0.0376526	0.139509	
0.0170898	0.0372314	0.139509	
0.0189209	0.0372681	0.139509	
0.012207	0.0371704	0.139509	
0.0256348	0.0366577	0.139509	
-0.0152588	0.0366577	0.139509	
0.0317383	0.0368774	0.139509	
0.0305176	0.0370056	0.139509	
-0.00488281	0.036615	0.139509	
-0.0115967	0.0364441	0.139509	
-0.0360107	0.0364136	0.139509	
0.0195313	0.0364075	0.139509	
0.012207	0.036377	0.139509	
-0.0335693	0.036615	0.139509	
0.0152588	0.0367615	0.139509	
-0.0115967	0.0364746	0.139509	
0.0115967	0.0363464	0.139509	
-0.0164795	0.0362488	0.139509	
-0.00793457	0.0362488	0.139509	
-0.0640869	0.0368408	0.139509	
-0.0830078	0.037439	0.139509	
0.0268555	0.0373718	0.139509	
-0.0585938	0.0374695	0.139509	
-0.0012207	0.0374634	0.139509	
0.00427246	0.037384	0.139509	
-0.0402832	0.0374817	0.139509	
0.0579834	0.0380249	0.139509	
0.0195313	0.037915	0.139509	
0.0280762	0.0379883	0.139509	
0.0463867	0.0379822	0.12207	
-0.0549316	0.0380371	0.12207	
-0.0378418	0.0382935	0.12207	
0.0238037	0.0380493	0.12207	
-0.0140381	0.0380005	0.12207	
-0.00427246	0.0378479	0.12207	
-0.0616455	0.0378479	0.12207	
-0.00549316	0.0378235	0.12207	
0.055542	0.0383728	0.12207	
0.00915527	0.0382629	0.12207	
-0.00305176	0.0377625	0.12207	
0.0769043	0.0383484	0.12207	
0.0415039	0.038623	0.12207	
0.0177002	0.0387329	0.139509	
0.0408936	0.0390747	0.139509	
0.00915527	0.0390381	0.139509	
0.078125	0.0396851	0.139509	
0.0714111	0.0400452	0.139509	
-0.0231934	0.0397705	0.139509	
0.0317383	0.0394104	0.139509	
0.0817871	0.040094	0.156948	
-0.0183105	0.0395569	0.156948	
-0.0384521	0.0391846	0.156948	
0	0.0388367	0.156948	
0.032959	0.0386902	0.156948	
0.0457764	0.0385559	0.156948	
-0.0299072	0.0386597	0.156948	
-0.03479	0.0389893	0.156948	
0.0158691	0.0390686	0.156948	
0.0665283	0.0390076	0.156948	
0.078125	0.0394226	0.139509	
-0.000610352	0.0391418	0.139509	
-0.0250244	0.0389893	0.139509	
0.0482178	0.0383484	0.139509	
0.0408936	0.0387268	0.139509	
-0.0305176	0.0375244	0.139509	
-0.00610352	0.0375427	0.139509	
-0.00732422	0.0376099	0.139509	
0.0109863	0.0373657	0.139509	
-0.00671387	0.0362854	0.139509	
-0.0146484	0.0352234	0.139509	
0.0274658	0.034552	0.139509	
0.0274658	0.0345215	0.139509	
-0.0335693	0.0334229	0.139509	
0.0415039	0.0335266	0.156948	
0.0280762	0.0325928	0.156948	
0.00488281	0.0323364	0.156948	
0.0823975	0.0330139	0.156948	
-0.0213623	0.0327637	0.156948	
0.0457764	0.0329895	0.156948	
0.0695801	0.0330994	0.156948	
0.0457764	0.0333313	0.156948	
0.0500488	0.033551	0.156948	
0.0183105	0.033606	0.156948	
-0.0280762	0.0335999	0.174386	
0.0823975	0.0337402	0.174386	
-0.0292969	0.0338806	0.174386	
-0.0457764	0.0342773	0.174386	
0.0537109	0.034436	0.174386	
-0.0115967	0.0344116	0.174386	
-0.012207	0.0343689	0.174386	
0.0567627	0.0348145	0.174386	
0.0231934	0.0348206	0.174386	
-0.0134277	0.0346863	0.174386	
-0.0537109	0.0345886	0.174386	
0.00427246	0.0338562	0.174386	
0.0164795	0.0332336	0.174386	
0.0256348	0.0324219	0.174386	
-0.0335693	0.0322937	0.174386	
-0.045166	0.0323914	0.174386	
-0.00610352	0.0312256	0.174386	
-0.0292969	0.0312317	0.174386	
0.0714111	0.0317749	0.174386	
-0.0012207	0.0315979	0.174386	
-0.0463867	0.0319397	0.191825	
0.0305176	0.0319885	0.191825	
-0.00976563	0.0319336	0.191825	
-0.010376	0.03172	0.191825	
0.0427246	0.031842	0.191825	
0.0115967	0.0319092	0.191825	
0.0195313	0.0319885	0.191825	
-0.03479	0.0319763	0.191825	
0.00793457	0.0318604	0.191825	
0.065918	0.0323975	0.191825	
0.043335	0.0324951	0.191825	
-0.0195313	0.0325378	0.191825	
0.0299072	0.0327209	0.191825	
-0.0311279	0.0329163	0.191825	
0.010376	0.0328552	0.209263	
0.0250244	0.0330261	0.209263	
-0.022583	0.0326111	0.209263	
0	0.031781	0.209263	
0.0189209	0.0317017	0.209263	
-0.0164795	0.0312805	0.209263	
-0.00244141	0.0312927	0.209263	
0.0268555	0.0315186	0.209263	
0.0115967	0.0312317	0.209263	
0.0494385	0.0311462	0.209263	
0.000610352	0.030957	0.209263	
0.020752	0.0308838	0.209263	
0.0640869	0.0310608	0.209263	
0.00793457	0.0305908	0.209263	
-0.0408936	0.0306213	0.209263	
0.0762939	0.0311462	0.209263	
0.0354004	0.0313599	0.209263	
0.0305176	0.0316223	0.226702	
-0.0158691	0.0311646	0.226702	
0.0396729	0.0315063	0.226702	
0.0128174	0.0310791	0.226702	
0.0170898	0.0311584	0.226702	
-0.010376	0.0312317	0.226702	
0.0402832	0.0308655	0.244141	
0.0219727	0.0306702	0.244141	
0.0518799	0.031012	0.244141	
-0.00732422	0.0306763	0.244141	
-0.0177002	0.0307617	0.244141	
0.0408936	0.0303894	0.244141	
0.0769043	0.0304443	0.244141	
-0.00183105	0.0302307	0.244141	
0.0158691	0.030072	0.244141	
0.0262451	0.0295166	0.244141	
0.0109863	0.0294434	0.244141	
0.0482178	0.029541	0.261579	
0.0402832	0.0299438	0.261579	
0.0286865	0.0299011	0.261579	
0.0604248	0.0300476	0.261579	
0.0311279	0.0300598	0.261579	
0.0561523	0.0302734	0.261579	
0.117798	0.0312927	0.261579	
0.0305176	0.0309326	0.261579	
0.0390625	0.030542	0.261579	
0.00366211	0.0305725	0.261579	
0.0317383	0.0306396	0.261579	
0.0805664	0.0309631	0.261579	
0.0311279	0.0308655	0.261579	
-0.043335	0.0309937	0.279018	
0.0250244	0.0311829	0.279018	
0.0360107	0.0314697	0.279018	
0.0567627	0.0319275	0.279018	
0.0360107	0.0322205	0.279018	
0.0354004	0.032428	0.279018	
0.0805664	0.032959	0.279018	
0.0512695	0.033197	0.279018	
-0.0280762	0.0331421	0.279018	
0.0952148	0.0336792	0.279018	
0.0958252	0.0343567	0.279018	
0.0183105	0.034491	0.279018	
0.100098	0.034668	0.279018	
-0.00549316	0.0345093	0.279018	
0.0469971	0.0345215	0.279018	
0.0854492	0.0346802	0.279018	
0.00305176	0.0342529	0.279018	
0	0.0337524	0.279018	
0.0115967	0.0336853	0.279018	
0.0213623	0.0336182	0.279018	
-0.0012207	0.0328064	0.279018	
-0.0195313	0.0327087	0.279018	
-0.00183105	0.0322693	0.279018	
0.0354004	0.0320862	0.279018	
0.065918	0.0326294	0.279018	
0.000610352	0.0325134	0.279018	
0.0366211	0.032312	0.279018	
0.0567627	0.0326477	0.279018	
0.0927734	0.0334412	0.279018	
0.0268555	0.0331726	0.279018	
-0.0408936	0.0335388	0.279018	
0.0811768	0.0341858	0.279018	
0.0769043	0.0346985	0.279018	
-0.0268555	0.0346313	0.279018	
0.0170898	0.0343506	0.279018	
0.0415039	0.0347046	0.279018	
0.0311279	0.0347229	0.279018	
0.0402832	0.0344116	0.279018	
0.0134277	0.0345337	0.296456	
0.057373	0.0346436	0.296456	
0.0537109	0.0348755	0.296456	
0.0201416	0.0349792	0.296456	
0.032959	0.0352051	0.296456	
0.0683594	0.0354614	0.296456	
0.020752	0.035553	0.296456	
0.0756836	0.0361145	0.296456	
-0.010376	0.0358704	0.296456	
0.0866699	0.0366577	0.296456	
0.136108	0.0373596	0.296456	
0.114746	0.0380737	0.296456	
-0.00976563	0.0379761	0.296456	
0.0610352	0.0382874	0.296456	
0.0854492	0.0388306	0.296456	
0.0360107	0.0390869	0.296456	
0.0128174	0.0389648	0.296456	
-0.0445557	0.0391846	0.296456	
0.0177002	0.0393616	0.296456	
0.0244141	0.0394165	0.296456	
-0.0750732	0.0400024	0.313895	
-0.0189209	0.0401672	0.313895	
0.03479	0.0402466	0.313895	
0.0244141	0.0403748	0.313895	
0.0512695	0.0403931	0.313895	
0.00366211	0.0404236	0.313895	
0.0134277	0.0403503	0.313895	
0.0695801	0.0404053	0.313895	
-0.0280762	0.0406067	0.313895	
-0.0195313	0.0403931	0.313895	
0.0256348	0.0398865	0.313895	
-0.000610352	0.0395386	0.313895	
0.0146484	0.0393799	0.313895	
-0.0775146	0.0399963	0.313895	
-0.00427246	0.0396423	0.313895	
0.0836182	0.0403503	0.331334	
0.0415039	0.0405945	0.331334	
0.00488281	0.0405396	0.331334	
0.0415039	0.0405518	0.331334	
0.0750732	0.0410828	0.331334	
0.0238037	0.040802	0.313895	
0.0164795	0.0408936	0.313895	
0.00671387	0.0407837	0.313895	
0.0579834	0.0409546	0.313895	
0.022583	0.0404114	0.313895	
-0.0360107	0.0407532	0.313895	
0.0323486	0.040918	0.313895	
0.0750732	0.0414063	0.331334	
0.032959	0.041626	0.331334	
0.0445557	0.0415894	0.331334	
0.0195313	0.0413818	0.331334	
0.0854492	0.0419495	0.331334	
0.0964355	0.0423096	0.331334	
0.0390625	0.0423889	0.331334	
-0.0390625	0.042218	0.331334	
0.0494385	0.0415344	0.331334	
0.0335693	0.0415649	0.331334	
0.0610352	0.0417847	0.331334	
-0.0170898	0.0419189	0.331334	
-0.0445557	0.0420471	0.331334	
0.0292969	0.0415344	0.331334	
0.0360107	0.0415833	0.331334	
0.0177002	0.0413269	0.331334	
0.0518799	0.0415955	0.331334	
0.0396729	0.0416321	0.331334	
0.0268555	0.041333	0.331334	
0.0128174	0.0411011	0.331334	
0.0402832	0.0411499	0.331334	
0.0469971	0.0408142	0.331334	
0.057373	0.0408752	0.331334	
-0.0506592	0.0411011	0.331334	
0.00915527	0.0402405	0.313895	
0.0146484	0.0394287	0.313895	
0.010376	0.0393494	0.313895	
0.0408936	0.0387573	0.313895	
-0.055542	0.0392578	0.313895	
0	0.0387878	0.313895	
0.0708008	0.0386414	0.313895	
0.022583	0.0388367	0.313895	
0.0213623	0.0390503	0.313895	
0.0714111	0.0396484	0.313895	
0.0579834	0.0400146	0.313895	
0.0744629	0.0407471	0.313895	
0.00854492	0.0406372	0.313895	
0.0238037	0.0408569	0.313895	
0.0628662	0.0411316	0.313895	
0.010376	0.0405762	0.313895	
-0.0604248	0.0411743	0.313895	
-0.0250244	0.0410583	0.313895	
0.00854492	0.0405762	0.313895	
0.0244141	0.0398926	0.313895	
0.0183105	0.0398071	0.313895	
-0.0360107	0.0397583	0.313895	
0.000610352	0.0389526	0.313895	
0.0488281	0.0386719	0.313895	
-0.0299072	0.0387024	0.313895	
0.00732422	0.0386047	0.313895	
-0.000610352	0.0381958	0.313895	
-0.0622559	0.0385071	0.313895	
0.0274658	0.0383789	0.313895	
-0.0317383	0.038562	0.313895	
-0.0152588	0.0381409	0.313895	
0.0201416	0.0378052	0.313895	
0.0231934	0.0378357	0.313895	
0	0.0375061	0.313895	
0.020752	0.03703	0.331334	
-0.0231934	0.0370544	0.331334	
0.0183105	0.0364807	0.331334	
-0.020752	0.0365845	0.313895	
-0.00549316	0.0357727	0.313895	
0.0244141	0.0346558	0.313895	
0.0109863	0.0336182	0.313895	
-0.0152588	0.0336731	0.313895	
0.0457764	0.0335205	0.313895	
0.0714111	0.0333801	0.313895	
0.0549316	0.0335693	0.313895	
0.0238037	0.0336792	0.313895	
0	0.0332336	0.313895	
0.0787354	0.033844	0.313895	
0.0585938	0.0341858	0.313895	
-0.0323486	0.0337585	0.313895	
0.00305176	0.0335999	0.313895	
-0.0170898	0.0334229	0.313895	
-0.0512695	0.0336914	0.313895	
0.0488281	0.033667	0.313895	
-0.0286865	0.0339172	0.313895	
-0.0195313	0.0339783	0.313895	
0.0646973	0.0339294	0.313895	
-0.00366211	0.0336853	0.313895	
-0.0183105	0.0336731	0.313895	
0.020752	0.0336243	0.313895	
0.0500488	0.0341187	0.313895	
0.0366211	0.0343384	0.313895	
-0.0543213	0.0341064	0.313895	
0.00915527	0.0341553	0.313895	
0.065918	0.0339783	0.313895	
0.0268555	0.0338318	0.313895	
-0.0408936	0.0341919	0.313895	
0.0262451	0.0340393	0.313895	
0.0177002	0.0334656	0.313895	
0.0134277	0.0333618	0.313895	
0.0152588	0.0333496	0.313895	
-0.0128174	0.0334106	0.313895	
-0.0115967	0.0329468	0.313895	
0.0213623	0.0329346	0.313895	
-0.0109863	0.0326843	0.313895	
0.0244141	0.032605	0.296456	
0.0378418	0.0322327	0.296456	
-0.0372314	0.0322754	0.296456	
-0.0134277	0.0319641	0.296456	
-0.0311279	0.0320801	0.296456	
0.0354004	0.0315796	0.296456	
0.0634766	0.03125	0.296456	
-0.0708008	0.0315674	0.313895	
-0.0500488	0.0316772	0.313895	
-0.0445557	0.0316284	0.313895	
-0.0146484	0.0314392	0.313895	
-0.00793457	0.0309082	0.313895	
-0.0842285	0.0315796	0.313895	
-0.0762939	0.031897	0.313895	
-0.0299072	0.0319031	0.313895	
-0.0256348	0.0317993	0.313895	
-0.0915527	0.0325378	0.313895	
0.0012207	0.0320312	0.313895	
0.0213623	0.0318481	0.313895	
0.00183105	0.0315979	0.313895	
-0.0170898	0.0316406	0.313895	
-0.0457764	0.0316956	0.313895	
0.0292969	0.0315186	0.313895	
0.0164795	0.0311096	0.313895	
-0.0793457	0.0313965	0.313895	
0.043335	0.0317383	0.313895	
0.0177002	0.0317688	0.313895	
-0.00366211	0.0317017	0.313895	
0.0524902	0.0318176	0.313895	
-0.0463867	0.0317261	0.313895	
0.0775146	0.0325012	0.313895	
0.115356	0.0329468	0.313895	
0.0152588	0.0328735	0.313895	
0.0262451	0.0329224	0.313895	
0.0170898	0.0323792	0.313895	
-0.00183105	0.0318176	0.313895	
0.0445557	0.0315186	0.313895	
-0.043335	0.0318665	0.313895	
-0.0012207	0.0316406	0.313895	
0.0421143	0.0314331	0.313895	
-0.0231934	0.0315613	0.313895	
-0.0634766	0.0315918	0.313895	
0.0146484	0.031488	0.313895	
0.000610352	0.0314087	0.313895	
0.0402832	0.0315674	0.313895	
-0.0421143	0.0318054	0.313895	
-0.020752	0.0316528	0.313895	
0.0463867	0.0321106	0.313895	
0.0469971	0.0320923	0.313895	
-0.0280762	0.032074	0.313895	
0.0140381	0.0321411	0.313895	
0.0439453	0.0325745	0.313895	
0.00610352	0.0320129	0.313895	
0.0335693	0.032074	0.313895	
-0.0262451	0.032019	0.313895	
-0.00244141	0.0318909	0.313895	
0.0286865	0.0319763	0.313895	
-0.0189209	0.0319336	0.313895	
-0.043335	0.0323669	0.313895	
0.0469971	0.0326294	0.313895	
0.0115967	0.0325134	0.313895	
0.0323486	0.0326538	0.313895	
-0.0244141	0.0326904	0.313895	
-0.0128174	0.0327637	0.313895	
0.0854492	0.033374	0.313895	
0.0531006	0.0337952	0.313895	
-0.0518799	0.0341614	0.313895	
0.0512695	0.0342163	0.331334	
0.0341797	0.033844	0.331334	
0.0262451	0.0335571	0.331334	
-0.0012207	0.0333313	0.331334	
-0.0158691	0.03349	0.331334	
0.0390625	0.0330933	0.331334	
0.0628662	0.033136	0.331334	
-0.055542	0.0333679	0.331334	
-0.0115967	0.0334534	0.331334	
0.0341797	0.0336243	0.331334	
0.0256348	0.0333679	0.313895	
0.0622559	0.0335022	0.313895	
0.00915527	0.0333069	0.313895	
0.000610352	0.0331177	0.331334	
0.0695801	0.0331665	0.331334	
0	0.0331299	0.331334	
-0.020752	0.0331543	0.331334	
0.057373	0.0335205	0.331334	
0.0262451	0.0332825	0.331334	
0.0134277	0.0330505	0.331334	
-0.0518799	0.0330261	0.331334	
0.0244141	0.0331787	0.348772	
0.0518799	0.0330383	0.348772	
0.010376	0.0328735	0.348772	
-0.0372314	0.0328369	0.348772	
0.0689697	0.0332642	0.348772	
0.0646973	0.0337341	0.348772	
0.00732422	0.0336731	0.348772	
-0.00488281	0.0335693	0.348772	
-0.03479	0.0337891	0.348772	
0.0177002	0.0338501	0.348772	
0.0726318	0.0343628	0.348772	
-0.0616455	0.0348694	0.348772	
-0.0305176	0.0349304	0.348772	
0.0219727	0.0347717	0.348772	
-0.0592041	0.0349915	0.348772	
0.0109863	0.034967	0.348772	
-0.0152588	0.0348083	0.348772	
-0.020752	0.0346619	0.348772	
0.00427246	0.0340698	0.348772	
-0.0335693	0.0336975	0.366211	
-0.0567627	0.0337646	0.366211	
0.00427246	0.0333618	0.366211	
0.0213623	0.033429	0.366211	
0.00793457	0.033429	0.366211	
-0.032959	0.0329163	0.366211	
-0.0335693	0.032489	0.366211	
0.0628662	0.0328186	0.366211	
0.0634766	0.033197	0.366211	
-0.0421143	0.0327026	0.366211	
-0.00854492	0.0327759	0.366211	
0.0231934	0.0327942	0.366211	
0.0305176	0.0330811	0.366211	
0.00427246	0.0329529	0.38365	
-0.0469971	0.0329651	0.38365	
0.00976563	0.0327698	0.38365	
0.0634766	0.0332397	0.38365	
-0.0549316	0.0329956	0.38365	
-0.0183105	0.0327454	0.366211	
0.00854492	0.0326538	0.366211	
0.00854492	0.0327026	0.366211	
0.0177002	0.0323547	0.366211	
-0.0286865	0.0321777	0.366211	
0.00732422	0.0314758	0.366211	
0.0231934	0.0305542	0.366211	
-0.0250244	0.0306519	0.366211	
0.00427246	0.0304321	0.366211	
-0.00366211	0.0302979	0.366211	
-0.0109863	0.0303894	0.366211	
-0.00610352	0.0300049	0.366211	
-0.0646973	0.0302185	0.366211	
-0.0311279	0.0305176	0.366211	
0.0128174	0.0302246	0.366211	
-0.0189209	0.0301819	0.366211	
-0.0524902	0.030072	0.38365	
0.0262451	0.030188	0.38365	
0.00610352	0.0302429	0.38365	
0.0311279	0.0301514	0.366211	
0.0195313	0.0299255	0.366211	
-0.0396729	0.0301147	0.366211	
0.00427246	0.0296936	0.366211	
0.0805664	0.0300293	0.38365	
0.0012207	0.0297607	0.38365	
-0.0317383	0.0299377	0.38365	
0.0195313	0.0296936	0.38365	
-0.00915527	0.0297241	0.38365	
0.010376	0.0294922	0.38365	
-0.0537109	0.0297668	0.38365	
-0.0134277	0.0298767	0.38365	
0.0238037	0.0298279	0.38365	
-0.0299072	0.0299377	0.38365	
-0.0604248	0.0301086	0.38365	
-0.0189209	0.0298279	0.38365	
0.0115967	0.0298279	0.38365	
0.0286865	0.0297913	0.38365	
-0.0537109	0.0300842	0.38365	
-0.010376	0.0300598	0.38365	
0.0140381	0.0293457	0.401088	
0.0341797	0.0291565	0.401088	
-0.0341797	0.0289795	0.401088	
0.0439453	0.0289063	0.401088	
0.0292969	0.0288574	0.401088	
0.0231934	0.0288269	0.401088	
0.0427246	0.0292419	0.401088	
0.0311279	0.0293945	0.401088	
0.0671387	0.0296753	0.401088	
0.0579834	0.0296265	0.401088	
-0.0012207	0.0290833	0.401088	
0.0177002	0.0291443	0.401088	
0.0244141	0.0290466	0.401088	
0.020752	0.0289978	0.401088	
0.0201416	0.0285767	0.401088	
-0.0640869	0.029126	0.38365	
0.00793457	0.0291992	0.38365	
0.0708008	0.0292114	0.38365	
0.0177002	0.0293884	0.38365	
-0.0268555	0.0294495	0.38365	
0.0299072	0.0291748	0.38365	
0.0280762	0.0291931	0.401088	
0.067749	0.0297363	0.401088	
0.0128174	0.0293457	0.401088	
0.0177002	0.0292786	0.401088	
0.0488281	0.029248	0.401088	
0.0152588	0.0292969	0.401088	
-0.012207	0.0290466	0.401088	
0.0549316	0.0289063	0.401088	
0.0408936	0.0286682	0.38365	
0.0354004	0.028949	0.38365	
0.0250244	0.0291504	0.38365	
0.00244141	0.0288269	0.38365	
0.0726318	0.0293762	0.38365	
0.0506592	0.0291565	0.38365	
-0.0256348	0.0287964	0.38365	
0.0415039	0.0289063	0.38365	
0.0335693	0.0290222	0.38365	
0.00366211	0.0284668	0.38365	
0.0317383	0.0286743	0.38365	
-0.00488281	0.0285706	0.38365	
0.0360107	0.0287231	0.38365	
0.102539	0.0297058	0.38365	
0.0280762	0.0296509	0.401088	
-0.0109863	0.0291931	0.401088	
0.0195313	0.0293457	0.401088	
0.0665283	0.0297974	0.401088	
0.0494385	0.0302124	0.401088	
-0.0152588	0.0300354	0.401088	
-0.000610352	0.0297058	0.401088	
0.045166	0.0295288	0.401088	
0.0189209	0.0290833	0.401088	
-0.00915527	0.0287537	0.401088	
0.0567627	0.0292358	0.401088	
0.0378418	0.0293823	0.401088	
0.00976563	0.0291748	0.401088	
0.00976563	0.0292297	0.401088	
0.00366211	0.0287964	0.401088	
0.03479	0.0290466	0.401088	
0.0445557	0.0288574	0.401088	
-0.0195313	0.0285034	0.401088	
0.0219727	0.02854	0.401088	
0.0415039	0.0288696	0.401088	
-0.0109863	0.028894	0.401088	
0.0854492	0.0295715	0.401088	
0.00488281	0.0293335	0.401088	
0.0115967	0.0293762	0.401088	
0.0622559	0.0297668	0.401088	
0.0317383	0.029834	0.401088	
0.0183105	0.0299744	0.401088	
0.0396729	0.0303345	0.401088	
0.00488281	0.0302734	0.401088	
0.0360107	0.0305725	0.401088	
-0.032959	0.0302551	0.401088	
-0.012207	0.0300659	0.401088	
0.0360107	0.0302979	0.401088	
0.00854492	0.0301941	0.401088	
-0.0109863	0.0297791	0.401088	
0.0244141	0.0297607	0.401088	
0	0.0296997	0.401088	
0.00793457	0.0294678	0.401088	
0.0524902	0.0297974	0.401088	
-0.00366211	0.0294373	0.401088	
-0.012207	0.0295166	0.401088	
0.0231934	0.0289429	0.401088	
-0.0140381	0.029071	0.401088	
-0.010376	0.0288574	0.401088	
-0.0115967	0.0287781	0.401088	
-0.0164795	0.0288513	0.401088	
0.0646973	0.0293945	0.401088	
-0.0671387	0.0295288	0.401088	
-0.0250244	0.0296448	0.401088	
0.067749	0.0300842	0.401088	
0.0299072	0.0300842	0.401088	
0.00183105	0.0294983	0.401088	
0.0268555	0.0295776	0.38365	
0.0128174	0.0295898	0.38365	
0.0335693	0.0296387	0.38365	
0.0109863	0.0292114	0.38365	
-0.0378418	0.0294861	0.401088	
0.00732422	0.0294189	0.401088	
-0.00305176	0.0291077	0.401088	
-0.0878906	0.0296448	0.401088	
-0.00244141	0.0292297	0.401088	
-0.0622559	0.0295593	0.401088	
-0.0610352	0.0299377	0.401088	
-0.0311279	0.0298218	0.401088	
-0.0646973	0.0301575	0.401088	
-0.0183105	0.0296692	0.401088	
-0.00976563	0.029187	0.401088	
-0.0592041	0.0297668	0.401088	
-0.0549316	0.0301392	0.401088	
-0.032959	0.0302246	0.401088	
-0.0701904	0.030719	0.401088	
-0.00610352	0.0305786	0.401088	
-0.088501	0.0308228	0.401088	
-0.03479	0.0310913	0.401088	
0.0012207	0.0303955	0.401088	
-0.0366211	0.0305847	0.401088	
-0.0354004	0.0306702	0.401088	
-0.0115967	0.0304871	0.401088	
-0.045166	0.030658	0.401088	
-0.0134277	0.0301147	0.401088	
-0.0476074	0.0304626	0.401088	
-0.0427246	0.0307129	0.401088	
-0.00244141	0.030249	0.401088	
-0.000610352	0.0301025	0.401088	
-0.152588	0.0315063	0.401088	
0.00244141	0.0309814	0.401088	
0.00610352	0.0306335	0.401088	
-0.0170898	0.0304504	0.401088	
-0.00549316	0.0302551	0.401088	
-0.0518799	0.0307495	0.401088	
-0.032959	0.0303528	0.401088	
0.00549316	0.0299011	0.401088	
-0.043335	0.0300781	0.401088	
0.00793457	0.0297424	0.401088	
0.0164795	0.0295715	0.401088	
0.0134277	0.0296692	0.401088	
0.0579834	0.0299316	0.401088	
0.00854492	0.0299683	0.401088	
0.0543213	0.0301514	0.401088	
0.0408936	0.0295349	0.401088	
0.0646973	0.0299011	0.401088	
0.0238037	0.0300293	0.401088	
0.0610352	0.0304443	0.401088	
0.0445557	0.0302246	0.401088	
0.0341797	0.030072	0.401088	
0.0305176	0.0302246	0.401088	
0.0598145	0.0308167	0.401088	
0.0836182	0.0312012	0.401088	
0.0799561	0.0318115	0.401088	
0.00732422	0.0317932	0.401088	
0.0561523	0.0317871	0.401088	
0.0604248	0.0320129	0.401088	
0.0457764	0.032373	0.401088	
0.0665283	0.0329407	0.401088	
0.0708008	0.0336121	0.401088	
0.0952148	0.0342163	0.401088	
0.0683594	0.0344543	0.401088	
0.000610352	0.0342651	0.401088	
0.0732422	0.0347778	0.418527	
0.0915527	0.0352783	0.418527	
0.045166	0.0356201	0.418527	
0.088501	0.0356506	0.418527	
-0.022583	0.0358276	0.418527	
0.0286865	0.0359985	0.418527	
0.106201	0.036438	0.418527	
0.100708	0.0371277	0.418527	
0.0427246	0.0373718	0.418527	
0.0860596	0.0378357	0.418527	
0.090332	0.0386902	0.418527	
0.0732422	0.0390625	0.418527	
0.0732422	0.0394653	0.418527	
0.0817871	0.0401611	0.418527	
0.0793457	0.0405945	0.418527	
0.0506592	0.0410156	0.418527	
0.022583	0.0411316	0.418527	
0.0817871	0.0417053	0.418527	
0.0482178	0.0421875	0.418527	
0.0518799	0.042627	0.418527	
0.0738525	0.0428406	0.418527	
0.00549316	0.0428589	0.418527	
0.0494385	0.0432312	0.401088	
0.0891113	0.0438904	0.401088	
0.0213623	0.0439636	0.401088	
0.0616455	0.0444763	0.401088	
0.0811768	0.0451721	0.401088	
0.0897217	0.0459045	0.401088	
0.103149	0.0462891	0.401088	
0.0146484	0.0457642	0.418527	
0.0378418	0.0458923	0.418527	
0.133057	0.0465454	0.418527	
0.0720215	0.0469666	0.418527	
-0.00366211	0.0469849	0.418527	
0.0524902	0.0472412	0.418527	
0.0762939	0.047876	0.418527	
0.0280762	0.047821	0.418527	
0	0.0477112	0.418527	
0.00610352	0.0473938	0.418527	
0.0878906	0.0481995	0.418527	
0.0701904	0.0488708	0.418527	
-0.010376	0.0480957	0.418527	
0.0823975	0.0488953	0.418527	
0.045166	0.0487244	0.418527	
0.0372314	0.0484863	0.418527	
0.0549316	0.0487244	0.418527	
0.0286865	0.0483643	0.418527	
0.0445557	0.0486267	0.418527	
0.057373	0.0491028	0.418527	
0.0280762	0.0487915	0.418527	
0.0469971	0.0487122	0.418527	
0.0299072	0.0486816	0.418527	
-0.00854492	0.0480652	0.418527	
0.0775146	0.0487793	0.418527	
0.0311279	0.0482056	0.418527	
-0.0115967	0.0479736	0.418527	
0.0378418	0.0483398	0.418527	
-0.0354004	0.0483276	0.418527	
-0.0396729	0.0483704	0.418527	
0.00793457	0.0483337	0.418527	
-0.0115967	0.047998	0.418527	
-0.000610352	0.0478699	0.418527	
-0.000610352	0.0473999	0.401088	
0.0115967	0.0470886	0.418527	
0.0842285	0.0479065	0.418527	
0.0842285	0.0487427	0.418527	
0.00610352	0.0472778	0.418527	
0.0817871	0.0480713	0.418527	
0.131226	0.0493225	0.435965	
0.110474	0.0502563	0.435965	
0.12146	0.051416	0.435965	
-0.0280762	0.051178	0.435965	
0.0189209	0.0510376	0.435965	
0.0970459	0.0519531	0.453404	
0.0384521	0.0519043	0.453404	
-0.0390625	0.0522156	0.453404	
-0.0170898	0.0522217	0.453404	
-0.0244141	0.0523315	0.453404	
-0.0244141	0.0519958	0.453404	
-0.111084	0.0530212	0.453404	
-0.00183105	0.0524963	0.470843	
-0.0115967	0.0522034	0.470843	
-0.0177002	0.0517334	0.470843	
-0.0152588	0.0516479	0.488281	
0.0439453	0.0514771	0.488281	
0.0701904	0.0517334	0.488281	
0.10498	0.0524414	0.50572	
0.0799561	0.0529358	0.50572	
0.0292969	0.0526306	0.523158	
0.103149	0.0528259	0.523158	
0.0201416	0.0522278	0.523158	
-0.0622559	0.0527771	0.540597	
0.0164795	0.0523804	0.540597	
0.020752	0.0519836	0.558036	
-0.0634766	0.0521606	0.558036	
-0.0445557	0.0519409	0.575474	
-0.00183105	0.0512512	0.575474	
0.161743	0.0519165	0.575474	
0.211792	0.0533508	0.592913	
0.112915	0.0544739	0.592913	
0.123291	0.0549744	0.610352	
0.151367	0.0555725	0.610352	
0.0909424	0.0560303	0.610352	
0.155029	0.0566956	0.62779	
0.0219727	0.0566895	0.62779	
0.0323486	0.0567261	0.62779	
-0.00671387	0.0557312	0.645229	
0.0305176	0.0550293	0.645229	
-0.00366211	0.0546387	0.645229	
0.0360107	0.0541382	0.662667	
0.0402832	0.0536377	0.662667	
0.0579834	0.0534851	0.662667	
-0.0561523	0.0533142	0.680106	
-0.00793457	0.0525757	0.680106	
0.159912	0.0533813	0.680106	
0.119019	0.0540649	0.697545	
0.0994873	0.054834	0.697545	
0.166626	0.0556824	0.714983	
-0.00366211	0.0552368	0.714983	
-0.00488281	0.0547668	0.732422	
0.0494385	0.0545227	0.74986	
-0.0891113	0.0553589	0.74986	
-0.142822	0.0562927	0.767299	
-0.194702	0.0573486	0.784738	
-0.270386	0.0598389	0.802176	
-0.199585	0.0612183	0.819615	
-0.152588	0.0619324	0.837054	
-0.111694	0.0621521	0.854492	
0	0.0611206	0.871931	
-0.043335	0.0614075	0.889369	
0.012207	0.0611511	0.906808	
0.120239	0.0610229	0.924247	
0.0427246	0.06073	0.941685	
0.0366211	0.0610596	0.941685	
0.148926	0.0620239	0.959124	
0.0402832	0.0616638	0.976562	
0.0695801	0.0620789	0.994001	
0.10498	0.0631287	1.01144	
0.106812	0.0641357	1.01144	
0.261841	0.0658752	1.02888	
0.336304	0.0685364	1.04632	
0.172729	0.0701599	1.04632	
0.303345	0.0723694	1.06376	
0.157471	0.0734924	1.08119	
-0.0531006	0.0736511	1.09863	
0.088501	0.0739868	1.09863	
-0.113525	0.0748352	1.11607	
-0.160522	0.0759949	1.13351	
-0.147095	0.0768921	1.13351	
-0.204468	0.078656	1.15095	
-0.166016	0.0798462	1.16839	
0.0286865	0.079834	1.16839	
0.045166	0.0802002	1.18583	
0.0549316	0.0799744	1.20326	
-0.0317383	0.0799805	1.2207	
0.0897217	0.0807617	1.23814	
0.0634766	0.0810181	1.25558	
-0.00183105	0.0806824	1.29046	
-0.0494385	0.08078	1.3079	
-0.0134277	0.080835	1.34277	
-0.123291	0.0819519	1.37765	
-0.0756836	0.0827026	1.39509	
-0.0164795	0.0828613	1.42997	
-0.0823975	0.0835693	1.44741	
-0.0720215	0.0834473	1.46484	
-0.0360107	0.0829651	1.48228	
-0.107422	0.0839783	1.49972	
0.0164795	0.0833252	1.51716	
0.0720215	0.0827332	1.5346	
0.00366211	0.081665	1.55204	
0.0866699	0.0813171	1.56948	
0.151978	0.0825562	1.58691	
0.0134277	0.0825012	1.62179	
0.0134277	0.081665	1.63923	
-0.0494385	0.0817749	1.65667	
-0.0872803	0.0822571	1.67411	
-0.13855	0.0834717	1.69155	
-0.105591	0.0842834	1.70898	
0.0170898	0.0842102	1.72642	
0.010376	0.0832031	1.74386	
0.112915	0.084314	1.7613	
0.215454	0.0863525	1.7613	
0.238647	0.088562	1.77874	
0.256958	0.090979	1.77874	
0.132446	0.091864	1.79618	
0.205078	0.0932129	1.81362	
0.151367	0.0936768	1.81362	
-0.0299072	0.0931763	1.83105	
-0.119629	0.0940796	1.83105	
-0.088501	0.0939331	1.84849	
-0.198975	0.0957214	1.84849	
-0.231323	0.0974121	1.86593	
-0.0915527	0.0981628	1.86593	
-0.0213623	0.0981689	1.88337	
-0.03479	0.0978821	1.90081	
0.0476074	0.0979126	1.91825	
0.0396729	0.098291	1.93569	
0.0732422	0.097406	1.95313	
0.17395	0.0970276	1.97056	
0.0262451	0.0961609	1.988	
-0.0646973	0.095575	2.00544	
-0.00488281	0.0941101	2.02288	
-0.0524902	0.0937256	2.04032	
-0.115967	0.093335	2.05776	
-0.181885	0.0949341	2.0752	
-0.115967	0.0957703	2.11007	
-0.057373	0.0962769	2.12751	
-0.00183105	0.09599	2.14495	
0.0354004	0.0963074	2.16239	
0.194092	0.0978882	2.17983	
0.0958252	0.0984436	2.19727	
0.175781	0.0996216	2.2147	
0.195313	0.101013	2.23214	
0.12146	0.102148	2.24958	
0.0537109	0.101086	2.26702	
-0.0372314	0.100269	2.26702	
-0.0543213	0.0998169	2.28446	
-0.0164795	0.0983154	2.3019	
-0.0634766	0.0989136	2.31934	
-0.0769043	0.0996338	2.33677	
0.0860596	0.1	2.33677	
-0.0964355	0.100073	2.35421	
-0.00366211	0.0986816	2.35421	
0.158081	0.0983154	2.37165	
0.187988	0.0974915	2.37165	
0.150757	0.0970032	2.38909	
0.200195	0.0974792	2.38909	
0.137939	0.0977417	2.38909	
0.172119	0.0994629	2.40653	
0.126343	0.100293	2.40653	
-0.0305176	0.100476	2.42397	
0.0354004	0.0996277	2.42397	
0.0457764	0.0996582	2.42397	
0.0921631	0.100214	2.44141	
-0.0616455	0.0993408	2.44141	
-0.230103	0.101239	2.44141	
-0.162354	0.102167	2.45884	
-0.164795	0.102765	2.45884	
-0.10498	0.102747	2.47628	
-0.0811768	0.10094	2.47628	
-0.227661	0.0998535	2.49372	
-0.265503	0.100781	2.51116	
-0.13855	0.0991333	2.51116	
-0.0671387	0.09823	2.5286	
0.0183105	0.0978821	2.54604	
0.192871	0.0989258	2.56348	
0.229492	0.100085	2.58092	
0.300903	0.101489	2.58092	
0.359497	0.103613	2.59835	
-0.0445557	0.102014	2.61579	
0.181885	0.102173	2.61579	
0.184937	0.103735	2.63323	
0.043335	0.103717	2.65067	
-0.0299072	0.103467	2.65067	
0.0195313	0.103345	2.66811	
-0.0610352	0.103058	2.66811	
0.0823975	0.103247	2.68555	
-0.0201416	0.10343	2.70299	
0.0610352	0.103546	2.70299	
-0.0341797	0.103754	2.72042	
0.0146484	0.102667	2.73786	
-0.0366211	0.102277	2.7553	
-0.0836182	0.102948	2.7553	
-0.12085	0.103333	2.77274	
-0.0646973	0.103259	2.79018	
-0.0683594	0.103583	2.79018	
-0.0213623	0.102722	2.80762	
0.0579834	0.103137	2.82506	
0.0628662	0.103046	2.84249	
0.0598145	0.103607	2.85993	
0.162354	0.104364	2.87737	
0.178223	0.104626	2.89481	
0.0189209	0.104681	2.91225	
0.206909	0.106616	2.92969	
0.172119	0.107843	2.94713	
0.0256348	0.107227	2.96456	
-0.090332	0.106744	2.982	
-0.17334	0.107422	2.99944	
-0.164795	0.108899	3.01688	
-0.408325	0.112878	3.05176	
-0.319214	0.114941	3.0692	
-0.26123	0.115399	3.08664	
-0.280151	0.115814	3.12151	
-0.202026	0.115265	3.13895	
-0.0878906	0.114819	3.17383	
-0.0219727	0.112988	3.19127	
0.106812	0.112543	3.20871	
0.132446	0.113568	3.24358	
0.183105	0.114203	3.26102	
0.354004	0.116858	3.2959	
0.120239	0.116071	3.31334	
0.0787354	0.114545	3.34821	
0.219116	0.11582	3.38309	
0.102539	0.116632	3.41797	
-0.0219727	0.116504	3.45285	
0.148926	0.117517	3.47028	
0.175781	0.118878	3.50516	
0.128174	0.119427	3.54004	
0.0927734	0.118616	3.55748	
-0.00976563	0.118451	3.57492	
0.00549316	0.117859	3.59235	
0.0201416	0.118011	3.60979	
-0.124512	0.118732	3.62723	
-0.0219727	0.117792	3.64467	
-0.227051	0.118243	3.66211	
-0.275269	0.119836	3.66211	
-0.393066	0.123193	3.67955	
-0.147705	0.124652	3.69699	
-0.247192	0.12677	3.71443	
-0.142822	0.126257	3.73186	
-0.0012207	0.125311	3.7493	
-0.00610352	0.123615	3.76674	
0.112305	0.122784	3.76674	
0.110474	0.122675	3.78418	
0.100708	0.123145	3.80162	
0.15686	0.124341	3.81906	
0.0445557	0.124243	3.81906	
0.0970459	0.125049	3.8365	
0.0793457	0.125208	3.85393	
0.0628662	0.125067	3.87137	
0.0189209	0.124396	3.88881	
-0.0622559	0.124054	3.88881	
0.0354004	0.124371	3.90625	
0.10376	0.123828	3.92369	
0.192261	0.123871	3.92369	
0.215454	0.124518	3.94113	
0.408936	0.126605	3.94113	
0.316162	0.128387	3.94113	
0.203247	0.128699	3.95857	
-0.0134277	0.12757	3.95857	
0.254517	0.12981	3.95857	
0.330811	0.132764	3.976	
0.115356	0.133459	3.976	
0.00671387	0.132605	3.976	
-0.03479	0.132336	3.99344	
-0.00305176	0.130066	3.99344	
-0.00793457	0.128522	3.99344	
-0.0616455	0.12749	4.01088	
-0.175171	0.128192	4.01088	
-0.237427	0.129755	4.02832	
-0.222778	0.129706	4.04576	
-0.217896	0.12923	4.0632	
0.0415039	0.128259	4.09807	
0.311279	0.130701	4.11551	
0.247192	0.13299	4.15039	
0.144653	0.132507	4.18527	
0.0518799	0.130731	4.22015	
0.218506	0.129907	4.25502	
0.26001	0.128912	4.2899	
-0.0415039	0.128882	4.34222	
-0.545044	0.132513	4.37709	
-0.454712	0.135211	4.41197	
-0.665283	0.141431	4.46429	
-0.487061	0.146002	4.49916	
-0.548096	0.151288	4.55148	
-0.300293	0.15368	4.58636	
-0.111084	0.153967	4.63867	
-0.0653076	0.154419	4.67355	
0.0469971	0.154279	4.72586	
0.32959	0.157233	4.76074	
0.0982666	0.158069	4.81306	
0.254517	0.160248	4.84794	
0.227051	0.161682	4.88281	
0.0750732	0.161224	4.91769	
0.0335693	0.160913	4.95257	
-0.0701904	0.160931	4.98744	
-0.111694	0.161835	5.02232	
0.161743	0.162872	5.0572	
0.203857	0.164282	5.07464	
0.142212	0.165106	5.10951	
0.202637	0.165509	5.14439	
0.20813	0.165808	5.17927	
0.00549316	0.165674	5.21415	
-0.057373	0.164178	5.26646	
0.0683594	0.163141	5.31878	
0.0720215	0.163605	5.35366	
0.0408936	0.16311	5.40597	
-0.127563	0.162653	5.45829	
0.00305176	0.161035	5.5106	
-0.17395	0.158691	5.54548	
-0.0183105	0.155682	5.5978	
0.0524902	0.153595	5.63267	
-0.119019	0.151984	5.66755	
-0.237427	0.152338	5.70243	
-0.236206	0.153821	5.71987	
-0.340576	0.157007	5.75474	
-0.249634	0.158435	5.77218	
-0.022583	0.157336	5.78962	
-0.130615	0.156812	5.80706	
-0.0128174	0.1534	5.8245	
0.137329	0.153571	5.84194	
0.203857	0.154822	5.85938	
0.597534	0.158606	5.85938	
0.922241	0.166803	5.87681	
0.776367	0.174347	5.89425	
0.770264	0.18056	5.91169	
0.617065	0.184973	5.91169	
0.10376	0.184729	5.92913	
0.346069	0.187262	5.92913	
-0.203247	0.189197	5.94657	
-0.217896	0.191321	5.96401	
-0.452271	0.195642	5.96401	
-0.634766	0.200745	5.98145	
-0.619507	0.20672	5.99888	
-0.410767	0.208557	6.03376	
0.230713	0.208112	6.0512	
0.307617	0.207257	6.08608	
0.322876	0.209009	6.13839	
0.449219	0.211029	6.17327	
0.296631	0.212567	6.20815	
0.0848389	0.213403	6.26046	
-0.140991	0.214752	6.31278	
-0.421753	0.217847	6.34766	
-0.542603	0.222168	6.39997	
-0.575562	0.226917	6.43485	
-0.626221	0.23161	6.48717	
-0.700684	0.238171	6.52204	
-0.619507	0.243396	6.57436	
-0.429077	0.246893	6.60924	
-0.147705	0.247742	6.66155	
-0.0579834	0.248132	6.69643	
-0.0579834	0.24809	6.74874	
0.0537109	0.248273	6.78362	
0.128784	0.248523	6.8185	
0.0732422	0.247333	6.87081	
0.0134277	0.245313	6.90569	
0.0665283	0.241888	6.92313	
0.045166	0.239178	6.95801	
0.143433	0.23858	6.97545	
0.0543213	0.238989	7.01032	
0.0946045	0.23739	7.02776	
0.144043	0.235522	7.0452	
0.201416	0.236383	7.0452	
0.0604248	0.23692	7.06264	
0.175171	0.238324	7.06264	
0.214844	0.240442	7.06264	
0.169678	0.242059	7.06264	
0.267334	0.244116	7.06264	
0.238647	0.244751	7.0452	
0.206909	0.244446	7.0452	
0.335693	0.245575	7.02776	
0.169067	0.245087	7.01032	
0.258789	0.24726	6.97545	
0.279541	0.246942	6.95801	
0.125122	0.245721	6.92313	
-0.00610352	0.244336	6.90569	
-0.0683594	0.244501	6.87081	
-0.0549316	0.242865	6.83594	
0.0311279	0.240576	6.8185	
-0.17395	0.241901	6.78362	
-0.429688	0.240747	6.76618	
-0.148315	0.237683	6.73131	
-0.0189209	0.231219	6.71387	
-0.0128174	0.226477	6.69643	
-0.00854492	0.221082	6.67899	
0.0164795	0.218243	6.66155	
0.148315	0.218616	6.64411	
0.0354004	0.218317	6.62667	
-0.0262451	0.218109	6.60924	
0.131836	0.216132	6.5918	
0.178833	0.216937	6.55692	
0.162964	0.216022	6.53948	
0.115967	0.214911	6.52204	
-0.106201	0.215222	6.5046	
-0.269775	0.217584	6.46973	
0.13855	0.218268	6.45229	
0.187378	0.219025	6.43485	
0.0488281	0.217896	6.39997	
-0.0274658	0.216132	6.38253	
-0.183716	0.216547	6.36509	
-0.10437	0.215564	6.34766	
-0.126343	0.214746	6.33022	
-0.108643	0.215778	6.31278	
-0.101318	0.216217	6.31278	
-0.224609	0.21778	6.29534	
-0.246582	0.219525	6.29534	
-0.220947	0.221326	6.2779	
-0.164185	0.221692	6.26046	
-0.0622559	0.222284	6.26046	
0.150146	0.222046	6.24302	
0.108643	0.222949	6.24302	
0.20813	0.224506	6.22559	
0.130615	0.224622	6.22559	
0.0695801	0.222943	6.20815	
0.163574	0.222217	6.19071	
0.183105	0.220642	6.17327	
0.238647	0.220532	6.15583	
0.0653076	0.220959	6.13839	
-0.0115967	0.219769	6.10352	
0.0506592	0.220148	6.08608	
0.160522	0.22038	6.06864	
0.0836182	0.219177	6.03376	
0.0628662	0.213831	6.01632	
0.0598145	0.205206	5.99888	
0.0360107	0.197803	5.99888	
-0.00244141	0.190125	5.98145	
0.0634766	0.184589	5.98145	
-0.03479	0.183899	5.96401	
-0.0323486	0.180762	5.96401	
-0.106201	0.179791	5.96401	
-0.232544	0.179938	5.94657	
-0.162964	0.177045	5.94657	
-0.0921631	0.171619	5.94657	
-0.00793457	0.165503	5.92913	
-0.112915	0.162524	5.92913	
-0.13916	0.161609	5.92913	
0.0579834	0.159113	5.92913	
0.0665283	0.156549	5.91169	
0.010376	0.152161	5.91169	
0.043335	0.149628	5.91169	
0.088501	0.149664	5.91169	
-0.0946045	0.1492	5.89425	
-0.101318	0.145996	5.89425	
-0.137939	0.141949	5.87681	
-0.0360107	0.136554	5.87681	
-0.0415039	0.130707	5.85938	
-0.123291	0.124933	5.85938	
-0.032959	0.119067	5.84194	
-0.0805664	0.115582	5.84194	
-0.0140381	0.114246	5.8245	
0.0238037	0.113904	5.8245	
0.269165	0.116016	5.80706	
0.264893	0.118127	5.78962	
0.369263	0.120532	5.78962	
0.26001	0.1224	5.77218	
0.336914	0.125635	5.75474	
0.174561	0.126715	5.7373	
0.275879	0.129022	5.71987	
0.205688	0.129645	5.70243	
-0.236816	0.13147	5.68499	
-0.232544	0.132849	5.66755	
-0.223389	0.133643	5.65011	
-0.197144	0.1336	5.63267	
-0.230713	0.135303	5.61523	
-0.0915527	0.134467	5.5978	
-0.209961	0.134418	5.58036	
-0.137329	0.134094	5.56292	
-0.0421143	0.131842	5.54548	
-0.115356	0.130609	5.52804	
0.00183105	0.128558	5.52804	
0.0183105	0.125385	5.5106	
-0.0268555	0.123962	5.49316	
-0.0134277	0.121509	5.49316	
-0.0909424	0.119623	5.47573	
-0.0146484	0.118518	5.45829	
0.259399	0.121051	5.44085	
0.164185	0.122009	5.40597	
0.323486	0.124695	5.38853	
0.328979	0.127673	5.35366	
0.176392	0.127698	5.33622	
0.116577	0.124567	5.30134	
-0.0640869	0.123724	5.26646	
-0.0750732	0.124286	5.23158	
0.0915527	0.125073	5.21415	
-0.272217	0.12771	5.17927	
-0.390015	0.131445	5.14439	
-0.228271	0.132245	5.12695	
-0.0909424	0.1328	5.09208	
-0.163574	0.134174	5.07464	
0.152588	0.134381	5.0572	
0.17334	0.134326	5.03976	
0.145264	0.134149	5.02232	
0.125732	0.134247	5.00488	
0.159912	0.134784	4.98744	
0.128174	0.133368	4.97001	
0.252075	0.134503	4.95257	
0.0518799	0.133148	4.93513	
-0.0323486	0.132983	4.93513	
0.010376	0.132813	4.91769	
0.0305176	0.131281	4.90025	
0.0140381	0.130377	4.86537	
-0.109863	0.130212	4.84794	
-0.0823975	0.12995	4.8305	
-0.0543213	0.12948	4.81306	
0.0231934	0.127466	4.77818	
0.0457764	0.125458	4.76074	
0.0823975	0.124072	4.72586	
0.134888	0.123779	4.70843	
0.0921631	0.124078	4.67355	
0.125732	0.123834	4.65611	
0.200195	0.12475	4.62123	
0.179443	0.124463	4.60379	
-0.00427246	0.123199	4.56892	
-0.152588	0.12403	4.55148	
-0.0592041	0.122986	4.5166	
-0.106812	0.122223	4.48172	
0.0531006	0.120367	4.46429	
0.231323	0.122028	4.42941	
0.165405	0.123566	4.39453	
0.131226	0.124371	4.35965	
0.308838	0.125854	4.34222	
0.0811768	0.12583	4.32478	
-0.108032	0.126282	4.2899	
-0.146484	0.127148	4.2899	
-0.200195	0.12879	4.27246	
-0.158081	0.130347	4.27246	
-0.292358	0.132635	4.27246	
-0.357056	0.135858	4.27246	
-0.361328	0.139148	4.27246	
-0.282593	0.140912	4.27246	
-0.17334	0.14032	4.27246	
0.0140381	0.138831	4.27246	
-0.0640869	0.13855	4.27246	
-0.105591	0.139526	4.27246	
-0.125732	0.139655	4.27246	
-0.0830078	0.139093	4.27246	
-0.00732422	0.138586	4.27246	
0.0921631	0.138843	4.27246	
0.0354004	0.139093	4.27246	
0.0952148	0.139612	4.27246	
0.0640869	0.139368	4.27246	
0.0360107	0.138782	4.27246	
0.0531006	0.1383	4.27246	
-0.0402832	0.137323	4.27246	
0.0360107	0.137323	4.27246	
0.100708	0.137915	4.27246	
0.222778	0.13891	4.27246	
0.246582	0.141046	4.2899	
0.343018	0.143671	4.2899	
0.2771	0.146301	4.2899	
0.055542	0.146619	4.2899	
0.0238037	0.144165	4.2899	
-0.0109863	0.141626	4.2899	
0.0933838	0.138867	4.2899	
-0.114136	0.137408	4.2899	
-0.0177002	0.134216	4.2899	
0.00915527	0.132562	4.2899	
-0.0616455	0.13042	4.2899	
-0.0921631	0.129285	4.2899	
0.0646973	0.127563	4.2899	
0.0360107	0.125598	4.2899	
0.167236	0.125037	4.2899	
0.00793457	0.123145	4.2899	
-0.175781	0.122595	4.2899	
-0.0469971	0.12215	4.2899	
-0.115356	0.121204	4.2899	
0.0146484	0.119977	4.27246	
0.161133	0.121167	4.27246	
0.17395	0.121753	4.27246	
0.282593	0.124561	4.27246	
0.13916	0.125769	4.27246	
0.0946045	0.126447	4.27246	
-0.0524902	0.126837	4.27246	
-0.119629	0.127124	4.27246	
-0.10498	0.128027	4.27246	
0.0402832	0.125836	4.27246	
-0.0469971	0.124664	4.27246	
-0.187378	0.123303	4.27246	
-0.157471	0.121588	4.2899	
-0.0976563	0.120801	4.2899	
-0.118408	0.120819	4.2899	
0.0360107	0.120538	4.2899	
0.0494385	0.120282	4.2899	
0.0183105	0.11955	4.2899	
-0.197144	0.118799	4.2899	
-0.186768	0.116766	4.2899	
-0.0897217	0.115381	4.2899	
0.00915527	0.114563	4.2899	
-0.0341797	0.113269	4.30734	
0.129395	0.113037	4.30734	
0.198975	0.113293	4.30734	
0.231934	0.11416	4.30734	
0.177002	0.114673	4.32478	
0.055542	0.113629	4.32478	
0.0427246	0.112775	4.34222	
0.0421143	0.110675	4.35965	
-0.0842285	0.110999	4.35965	
-0.0848389	0.111523	4.37709	
0.0128174	0.111548	4.39453	
0.03479	0.111591	4.39453	
0.0622559	0.112073	4.41197	
0.00671387	0.111041	4.41197	
-0.0445557	0.110663	4.41197	
0.078125	0.110901	4.41197	
0.0823975	0.111493	4.41197	
0.153809	0.112573	4.42941	
-0.0140381	0.11189	4.42941	
-0.206909	0.11261	4.42941	
-0.00854492	0.111774	4.42941	
0.0280762	0.110797	4.42941	
0.163574	0.110431	4.42941	
0.239868	0.111035	4.42941	
0.273438	0.113727	4.44685	
-0.00488281	0.11225	4.44685	
0.215454	0.113812	4.44685	
0.0195313	0.112939	4.46429	
-0.110474	0.113513	4.46429	
-0.0500488	0.1117	4.46429	
0.0372314	0.110419	4.48172	
-0.122681	0.110333	4.48172	
0.0146484	0.107391	4.48172	
0.218506	0.108765	4.49916	
0.172729	0.109412	4.49916	
0.328979	0.111237	4.49916	
0.189209	0.111127	4.5166	
0.15625	0.111108	4.5166	
-0.144043	0.109625	4.53404	
-0.206909	0.108124	4.53404	
-0.114746	0.105658	4.55148	
-0.233765	0.10517	4.56892	
-0.202637	0.105463	4.56892	
-0.279541	0.108118	4.58636	
-0.338135	0.110858	4.60379	
-0.0183105	0.109985	4.62123	
-0.131836	0.110046	4.63867	
-0.12207	0.110437	4.63867	
-0.0567627	0.110931	4.65611	
-0.0152588	0.110162	4.67355	
-0.158081	0.111389	4.69099	
-0.125732	0.111694	4.70843	
-0.0805664	0.111859	4.70843	
-0.0140381	0.111639	4.72586	
-0.0439453	0.111548	4.7433	
0.00793457	0.111224	4.76074	
0.147705	0.112341	4.77818	
0.251465	0.113849	4.79562	
0.0878906	0.1125	4.81306	
-0.0128174	0.110162	4.8305	
0.0769043	0.107501	4.84794	
0.202026	0.10675	4.84794	
0.252686	0.108722	4.86537	
0.324707	0.111731	4.86537	
0.115356	0.112775	4.88281	
0.0939941	0.112781	4.88281	
0.113525	0.112775	4.88281	
0.19104	0.114508	4.88281	
0.0384521	0.114801	4.88281	
-0.00610352	0.114246	4.88281	
-0.0952148	0.114276	4.88281	
-0.114136	0.114771	4.88281	
-0.227661	0.116687	4.88281	
-0.153809	0.116553	4.90025	
-0.101318	0.117487	4.90025	
0.105591	0.116785	4.90025	
0.172119	0.118036	4.91769	
0.148926	0.118372	4.93513	
0.0152588	0.118378	4.93513	
0.108032	0.117847	4.95257	
-0.0927734	0.117035	4.97001	
-0.0952148	0.115161	4.97001	
-0.0775146	0.114545	4.98744	
-0.27771	0.116376	4.98744	
-0.325928	0.11911	5.00488	
-0.325317	0.121167	5.00488	
-0.167847	0.121796	5.02232	
-0.133667	0.122729	5.03976	
-0.101929	0.123279	5.03976	
0.03479	0.121753	5.0572	
0.0280762	0.120459	5.0572	
0.0817871	0.1203	5.07464	
-0.0732422	0.119849	5.07464	
0.0585938	0.120074	5.07464	
0.0170898	0.119751	5.09208	
0.117188	0.12074	5.09208	
0.00915527	0.11886	5.09208	
-0.0482178	0.117474	5.09208	
0.167236	0.11825	5.09208	
0.321655	0.121375	5.09208	
0.10437	0.122076	5.09208	
0.15686	0.122351	5.09208	
0.0915527	0.121277	5.09208	
0.17395	0.120697	5.09208	
0.0311279	0.119238	5.09208	
-0.0366211	0.119049	5.07464	
-0.0744629	0.119366	5.07464	
-0.130005	0.120245	5.07464	
-0.273438	0.122137	5.07464	
-0.154419	0.122833	5.07464	
-0.0701904	0.123407	5.07464	
-0.162354	0.124683	5.0572	
-0.10498	0.12511	5.0572	
-0.0244141	0.125287	5.0572	
0.0970459	0.125812	5.03976	
0.250854	0.127539	5.03976	
0.230713	0.129022	5.03976	
0.202637	0.12951	5.02232	
0.2948	0.132318	5.02232	
0.275879	0.133008	5.00488	
0.0604248	0.133527	4.98744	
0.217896	0.135425	4.98744	
0.0860596	0.13465	4.97001	
0.0500488	0.132751	4.97001	
-0.101929	0.131036	4.95257	
-0.192261	0.13291	4.95257	
-0.0286865	0.131042	4.93513	
0.125732	0.132104	4.91769	
0.088501	0.131885	4.91769	
-0.055542	0.13194	4.90025	
0.10376	0.132605	4.90025	
0.0897217	0.132275	4.88281	
0.181274	0.133942	4.88281	
0.153809	0.133295	4.86537	
0.100098	0.132568	4.86537	
-0.167847	0.130957	4.84794	
-0.219116	0.131256	4.84794	
-0.101318	0.130707	4.84794	
-0.110474	0.130371	4.84794	
-0.114136	0.129443	4.84794	
-0.03479	0.128644	4.8305	
-0.155029	0.127856	4.8305	
-0.00732422	0.125903	4.8305	
-0.124512	0.124353	4.8305	
-0.203857	0.12301	4.8305	
-0.123291	0.12406	4.8305	
0.0482178	0.123224	4.8305	
-0.0506592	0.12251	4.8305	
-0.189209	0.123834	4.8305	
-0.216675	0.125848	4.8305	
-0.252075	0.126788	4.84794	
0.03479	0.125879	4.84794	
0.147095	0.126544	4.84794	
0.065918	0.127063	4.84794	
0.00732422	0.126697	4.84794	
-0.0366211	0.126984	4.86537	
0.127563	0.126782	4.86537	
0.0256348	0.124524	4.86537	
0.0897217	0.124542	4.86537	
0.161133	0.126025	4.86537	
0.174561	0.127002	4.86537	
0.168457	0.126666	4.86537	
0.327148	0.127411	4.86537	
0.203247	0.126196	4.86537	
0.125732	0.1263	4.86537	
0.273438	0.128094	4.86537	
0.128784	0.128247	4.84794	
-0.133667	0.127673	4.84794	
-0.012207	0.127411	4.84794	
-0.0402832	0.127753	4.84794	
-0.122681	0.128027	4.84794	
-0.0866699	0.127753	4.84794	
-0.341187	0.128888	4.84794	
-0.124512	0.128595	4.84794	
-0.198364	0.129565	4.84794	
-0.117188	0.129681	4.8305	
-0.0946045	0.128906	4.8305	
-0.032959	0.127747	4.8305	
0.00244141	0.127618	4.8305	
-0.0695801	0.127234	4.8305	
0.0640869	0.126947	4.8305	
0.126953	0.127264	4.8305	
0.137939	0.127869	4.8305	
-0.0390625	0.125482	4.81306	
-0.0109863	0.122333	4.81306	
0.0177002	0.119257	4.81306	
-0.0646973	0.118225	4.81306	
0.0646973	0.117535	4.81306	
-0.0811768	0.117328	4.81306	
0.0372314	0.117352	4.79562	
0.0457764	0.117529	4.79562	
-0.0134277	0.116846	4.77818	
0.0146484	0.11626	4.77818	
0.142822	0.117102	4.76074	
-0.0195313	0.117126	4.76074	
-0.0164795	0.116119	4.7433	
-0.00854492	0.116113	4.7433	
0.119629	0.116827	4.72586	
0.101929	0.116174	4.72586	
0.410156	0.117059	4.70843	
0.230103	0.118317	4.70843	
0.362549	0.120374	4.69099	
0.00915527	0.11955	4.69099	
-0.0238037	0.118048	4.67355	
0.0292969	0.11803	4.65611	
-0.0543213	0.118207	4.65611	
-0.0488281	0.11795	4.63867	
-0.213623	0.118787	4.63867	
-0.247192	0.118524	4.62123	
-0.0518799	0.117499	4.62123	
-0.0860596	0.117657	4.62123	
-0.0714111	0.116748	4.62123	
0.0946045	0.116644	4.62123	
-0.145874	0.117859	4.62123	
-0.130615	0.118195	4.62123	
-0.0720215	0.116406	4.62123	
-0.108643	0.115186	4.62123	
-0.210571	0.115265	4.62123	
-0.0378418	0.112695	4.62123	
-0.00549316	0.109991	4.62123	
-0.0744629	0.110132	4.62123	
0.0201416	0.108154	4.62123	
0.0823975	0.108118	4.62123	
0.0164795	0.107782	4.62123	
0.0299072	0.107062	4.62123	
0.0128174	0.105267	4.62123	
0.17395	0.10672	4.62123	
0.151367	0.106976	4.62123	
0.0744629	0.106836	4.62123	
0.108643	0.107367	4.62123	
-0.00854492	0.106415	4.62123	
0.0720215	0.106238	4.62123	
0.0231934	0.104657	4.62123	
-0.194702	0.105066	4.62123	
-0.140991	0.105475	4.62123	
-0.0518799	0.104315	4.60379	
-0.105591	0.10318	4.60379	
0.0256348	0.102423	4.60379	
0.00976563	0.101416	4.60379	
0.045166	0.100726	4.60379	
-0.0610352	0.100989	4.60379	
-0.0244141	0.0996826	4.60379	
0.111084	0.10072	4.60379	
0.186157	0.101337	4.60379	
0.19104	0.101208	4.60379	
0.17395	0.101715	4.60379	
0.0964355	0.102197	4.58636	
-0.101929	0.10271	4.58636	
0.0323486	0.101141	4.58636	
0.137329	0.100348	4.58636	
0.0408936	0.0982361	4.58636	
-0.0317383	0.0982056	4.58636	
0.00427246	0.0967773	4.58636	
0.0323486	0.0964417	4.58636	
0.256958	0.098938	4.58636	
0.168457	0.100256	4.58636	
-0.0299072	0.0992798	4.58636	
-0.0970459	0.0999939	4.58636	
-0.137329	0.10047	4.58636	
-0.0317383	0.099176	4.58636	
-0.270996	0.10014	4.58636	
-0.430298	0.102759	4.58636	
-0.366821	0.103156	4.58636	
-0.297852	0.104102	4.58636	
-0.24292	0.105273	4.58636	
-0.0500488	0.10304	4.58636	
-0.0354004	0.102106	4.58636	
-0.0500488	0.10127	4.58636	
-0.0146484	0.101294	4.60379	
0.0195313	0.101086	4.60379	
0.0561523	0.100421	4.60379	
0.0134277	0.0996887	4.60379	
0.137329	0.0976501	4.62123	
0.171509	0.0981201	4.62123	
0.176392	0.0979004	4.62123	
0.120239	0.0979309	4.62123	
0.153198	0.0985168	4.62123	
0.106201	0.0992493	4.63867	
0.0671387	0.0998962	4.63867	
0.184937	0.10105	4.63867	
0.294189	0.103351	4.63867	
0.288696	0.104968	4.63867	
0.266724	0.106256	4.63867	
0.0750732	0.106616	4.65611	
0.0408936	0.106915	4.65611	
0.0579834	0.107318	4.65611	
0.0793457	0.107465	4.65611	
-0.237427	0.109192	4.65611	
-0.311279	0.111493	4.65611	
-0.280151	0.113922	4.65611	
-0.161743	0.115082	4.65611	
-0.139771	0.116345	4.63867	
-0.022583	0.116425	4.63867	
0.236816	0.117365	4.63867	
0.297241	0.120142	4.63867	
0.389404	0.123871	4.63867	
0.197754	0.125763	4.63867	
0.227661	0.126843	4.63867	
0.0286865	0.126111	4.65611	
0.0897217	0.122906	4.65611	
-0.0445557	0.121051	4.63867	
-0.0512695	0.117938	4.63867	
-0.163574	0.119482	4.63867	
-0.147095	0.120715	4.63867	
-0.19104	0.122333	4.63867	
-0.0946045	0.122736	4.63867	
0.00549316	0.122302	4.63867	
0.2948	0.123114	4.63867	
0.248413	0.123126	4.63867	
0.106812	0.123676	4.63867	
0.24231	0.125238	4.63867	
-0.0213623	0.124738	4.63867	
0.172729	0.125519	4.63867	
0.0598145	0.124658	4.65611	
-0.0415039	0.123767	4.65611	
-0.0323486	0.12337	4.65611	
-0.268555	0.124969	4.65611	
-0.321655	0.12608	4.67355	
-0.125122	0.126953	4.67355	
-0.0830078	0.127728	4.67355	
0.0543213	0.127527	4.69099	
-0.179443	0.12912	4.69099	
-0.123291	0.129529	4.69099	
0.0610352	0.129974	4.70843	
0.186768	0.131543	4.70843	
0.151978	0.132935	4.70843	
0.13916	0.132587	4.70843	
0.289917	0.133972	4.72586	
0.178223	0.13501	4.72586	
0.317993	0.137103	4.72586	
0.00671387	0.137085	4.72586	
-0.0927734	0.137292	4.72586	
0.0708008	0.137769	4.7433	
-0.0372314	0.136194	4.7433	
-0.305176	0.137836	4.7433	
-0.278931	0.140106	4.7433	
-0.310669	0.142157	4.7433	
-0.0848389	0.142749	4.7433	
-0.19043	0.144556	4.7433	
-0.0280762	0.144385	4.76074	
-0.0445557	0.14422	4.76074	
0.0878906	0.144855	4.76074	
0.0744629	0.144489	4.76074	
0.0891113	0.143518	4.77818	
0.0219727	0.141827	4.77818	
-0.045166	0.14054	4.77818	
-0.0610352	0.140186	4.79562	
-0.102539	0.140192	4.79562	
-0.0128174	0.139996	4.81306	
-0.00915527	0.138715	4.81306	
-0.0878906	0.139185	4.81306	
0.0494385	0.139362	4.8305	
-0.0537109	0.139856	4.8305	
-0.067749	0.14021	4.8305	
0.109863	0.138739	4.8305	
0.0396729	0.137451	4.8305	
0.12146	0.138367	4.8305	
0.131226	0.138708	4.8305	
0.0958252	0.138293	4.8305	
0.0231934	0.138208	4.8305	
0.03479	0.135846	4.8305	
0.088501	0.132428	4.8305	
-0.012207	0.128882	4.8305	
-0.109863	0.127002	4.8305	
-0.296631	0.127539	4.8305	
-0.101318	0.128052	4.8305	
-0.272217	0.13042	4.8305	
-0.307617	0.132996	4.8305	
-0.24353	0.135284	4.81306	
-0.19043	0.136993	4.81306	
-0.101929	0.137451	4.81306	
0.000610352	0.137323	4.81306	
0.142822	0.137378	4.81306	
0.24292	0.138092	4.81306	
0.123291	0.137561	4.79562	
0.0244141	0.136603	4.79562	
0.20813	0.137152	4.79562	
0.280762	0.138898	4.79562	
0.220947	0.140436	4.79562	
0.288086	0.141467	4.77818	
0.22522	0.140778	4.77818	
0.0848389	0.138739	4.76074	
0.24353	0.138507	4.76074	
0.164795	0.139404	4.76074	
0.177002	0.140765	4.7433	
-0.0354004	0.14054	4.7433	
-0.117188	0.140918	4.72586	
-0.0842285	0.139386	4.72586	
-0.402222	0.140295	4.72586	
-0.41687	0.141663	4.72586	
-0.26001	0.142645	4.70843	
-0.275269	0.144	4.70843	
-0.258789	0.146362	4.70843	
-0.136719	0.145361	4.70843	
-0.0579834	0.142969	4.70843	
0.17395	0.140814	4.70843	
0.123901	0.140076	4.72586	
0.107422	0.138873	4.72586	
0.0378418	0.138965	4.72586	
-0.0134277	0.138202	4.72586	
-0.135498	0.139111	4.72586	
-0.0146484	0.138745	4.72586	
-0.045166	0.137561	4.72586	
-0.269775	0.138788	4.72586	
-0.0775146	0.137653	4.72586	
0.0402832	0.137109	4.72586	
0.183716	0.138892	4.72586	
0.24292	0.138373	4.72586	
0.0842285	0.136731	4.72586	
0.105591	0.136719	4.72586	
0.0805664	0.135101	4.72586	
-0.0250244	0.135138	4.72586	
-0.0286865	0.133698	4.72586	
-0.12207	0.13432	4.72586	
-0.103149	0.134937	4.72586	
-0.123901	0.135852	4.72586	
-0.065918	0.133826	4.72586	
-0.00183105	0.130627	4.72586	
0.0646973	0.130023	4.72586	
0.0811768	0.130005	4.72586	
0.238037	0.131842	4.72586	
0.187988	0.131927	4.72586	
0.143433	0.132129	4.72586	
0.117188	0.13269	4.70843	
0.0604248	0.131427	4.70843	
0.0756836	0.130664	4.70843	
0.132446	0.130597	4.69099	
0.0146484	0.127844	4.67355	
-0.0787354	0.126849	4.67355	
0.0323486	0.123993	4.65611	
0.00366211	0.123962	4.63867	
0.0701904	0.123737	4.62123	
0.185547	0.124884	4.62123	
0.130615	0.125818	4.60379	
0.0274658	0.123041	4.58636	
0.0640869	0.120892	4.56892	
0.0695801	0.118481	4.55148	
0.0366211	0.117999	4.53404	
0.0238037	0.116333	4.5166	
-0.0976563	0.117029	4.49916	
-0.0183105	0.116766	4.48172	
0.0012207	0.1159	4.44685	
-0.03479	0.115503	4.42941	
-0.0866699	0.115479	4.39453	
0.0140381	0.115399	4.35965	
-0.0585938	0.115533	4.32478	
-0.0341797	0.115265	4.2899	
-0.0469971	0.114709	4.25502	
0.0720215	0.115302	4.22015	
0.0305176	0.115515	4.18527	
-0.0671387	0.115308	4.13295	
0.0836182	0.115649	4.09807	
0.117188	0.116284	4.04576	
0.0457764	0.116064	4.01088	
0.0933838	0.1159	3.976	
-0.00610352	0.115564	3.92369	
0.0640869	0.11499	3.88881	
0.145264	0.115131	3.85393	
0.166016	0.115833	3.81906	
0.105591	0.116656	3.76674	
0.196533	0.118274	3.73186	
0.0872803	0.118262	3.69699	
0.0976563	0.119116	3.64467	
0.0738525	0.118756	3.59235	
0.0860596	0.11665	3.54004	
0.0823975	0.116461	3.47028	
0.0268555	0.114008	3.40053	
-0.0463867	0.111395	3.33078	
-0.00549316	0.109015	3.26102	
-0.119019	0.108301	3.20871	
0.0170898	0.107452	3.13895	
-0.0177002	0.107623	3.08664	
-0.12207	0.107416	3.03432	
-0.113525	0.106122	2.982	
-0.120239	0.106091	2.92969	
-0.198364	0.107831	2.89481	
-0.0909424	0.106659	2.84249	
-0.0219727	0.104071	2.79018	
-0.0164795	0.102026	2.73786	
0.0164795	0.0993103	2.68555	
-0.123291	0.098291	2.63323	
0.0244141	0.0976868	2.58092	
0.0878906	0.0961304	2.5286	
0.0164795	0.0946472	2.45884	
-0.00488281	0.092926	2.40653	
-0.0146484	0.0927185	2.35421	
0.012207	0.0916687	2.28446	
0.0817871	0.0916443	2.2147	
-0.00488281	0.0876709	2.16239	
-0.00305176	0.0835327	2.09263	
0.0689697	0.0816223	2.02288	
0.0463867	0.0793335	1.95313	
-0.00305176	0.0767761	1.90081	
0.0378418	0.0757874	1.84849	
0.0396729	0.0756042	1.81362	
0.0244141	0.0741089	1.7613	
0.0128174	0.072998	1.74386	
0.00915527	0.0720154	1.70898	
0.0250244	0.0718872	1.67411	
0.00671387	0.0718201	1.65667	
-0.0219727	0.0706848	1.62179	
0.0811768	0.0713501	1.60435	
0.111084	0.0720093	1.56948	
0.0592041	0.0699036	1.5346	
0.127563	0.0704041	1.51716	
0.00427246	0.0700439	1.48228	
0.117188	0.0693787	1.44741	
0.0738525	0.067688	1.41253	
0.0323486	0.0671692	1.39509	
-0.0634766	0.066748	1.36021	
-0.0164795	0.0661072	1.32533	
-0.0482178	0.0663391	1.3079	
-0.00549316	0.0661072	1.27302	
-0.100708	0.0658936	1.25558	
-0.0476074	0.0653381	1.23814	
0.043335	0.0645325	1.20326	
0.0402832	0.0642761	1.18583	
-0.0372314	0.0646301	1.16839	
0.0384521	0.0643677	1.15095	
0.0390625	0.0639465	1.13351	
0.0305176	0.0618713	1.11607	
0.0262451	0.0602539	1.09863	
0.00488281	0.0588684	1.09863	
0.0482178	0.0581787	1.08119	
0.0854492	0.058429	1.08119	
0.00915527	0.0577637	1.06376	
0.0323486	0.0567627	1.06376	
0.067749	0.0572937	1.04632	
0.0476074	0.0569824	1.04632	
0.067749	0.0573364	1.04632	
0.00915527	0.0573914	1.02888	
0.0744629	0.0574341	1.02888	
0.0610352	0.056189	1.01144	
0.00732422	0.0549561	0.994001	
-0.00488281	0.0547302	0.994001	
0.055542	0.0546448	0.976562	
0.0317383	0.0542664	0.959124	
0.0524902	0.054425	0.959124	
-0.00915527	0.0542786	0.941685	
0.00854492	0.0533875	0.941685	
0.088501	0.0540894	0.941685	
0.0915527	0.0549927	0.941685	
0.00671387	0.0547119	0.924247	
0.0860596	0.0547058	0.924247	
0.123901	0.0558044	0.924247	
0.118408	0.0564026	0.906808	
0.131226	0.057373	0.906808	
0.101318	0.0579163	0.889369	
0.116577	0.0583618	0.889369	
0.131226	0.0593689	0.871931	
0.0457764	0.0591553	0.871931	
0.0732422	0.0590515	0.854492	
0.0390625	0.0582703	0.854492	
-0.0280762	0.0580933	0.837054	
0.00915527	0.057251	0.837054	
-0.0823975	0.0580139	0.837054	
-0.0177002	0.05755	0.819615	
0.00183105	0.0561157	0.819615	
-0.0311279	0.0547668	0.819615	
-0.00976563	0.0538086	0.802176	
0.0244141	0.0520874	0.802176	
-0.0012207	0.0512268	0.802176	
0.0396729	0.050647	0.802176	
0.00305176	0.049939	0.784738	
0.0274658	0.049353	0.784738	
0.0543213	0.0490723	0.784738	
0.0854492	0.0496582	0.784738	
0	0.0491943	0.784738	
0.0183105	0.0493225	0.767299	
0.0390625	0.0485229	0.767299	
0.0335693	0.0486877	0.767299	
0.0415039	0.0489258	0.767299	
-0.0231934	0.047937	0.767299	
0.0238037	0.0470398	0.767299	
0.0897217	0.0467346	0.767299	
0.00976563	0.0448486	0.767299	
0.0427246	0.0443665	0.767299	
0.0512695	0.0446594	0.767299	
0.0366211	0.0448608	0.767299	
0.109253	0.0457886	0.767299	
0.0341797	0.0448975	0.767299	
0.0262451	0.0449158	0.767299	
0.0378418	0.0444153	0.767299	
0.00610352	0.0443115	0.767299	
0.0256348	0.044519	0.74986	
0.0366211	0.0447388	0.74986	
-0.0500488	0.0451172	0.74986	
0.012207	0.0444214	0.74986	
-0.020752	0.0445801	0.74986	
-0.0140381	0.0446899	0.74986	
0.0421143	0.0444214	0.732422	
0.0158691	0.0441162	0.732422	
-0.0360107	0.0444458	0.732422	
0.0439453	0.0445068	0.732422	
0.03479	0.044458	0.732422	
0.032959	0.0445435	0.732422	
0.020752	0.0446228	0.732422	
-0.0360107	0.0448914	0.732422	
0.0177002	0.0448181	0.732422	
0.0549316	0.0453003	0.732422	
-0.0390625	0.0454712	0.732422	
-0.022583	0.0448853	0.732422	
0.0305176	0.0440796	0.732422	
0.020752	0.0436951	0.732422	
0.057373	0.0429932	0.732422	
0.0439453	0.0433899	0.732422	
0.0402832	0.0426208	0.732422	
0.0872803	0.0427551	0.714983	
0.0280762	0.0427124	0.714983	
0.0231934	0.0423096	0.714983	
0.0317383	0.0424622	0.714983	
0.00671387	0.0420471	0.697545	
0.0537109	0.0425293	0.697545	
-0.0152588	0.0416748	0.697545	
-0.032959	0.0415283	0.697545	
0.043335	0.0415283	0.697545	
0.0457764	0.0415833	0.697545	
-0.032959	0.0415405	0.697545	
0.00488281	0.0412048	0.697545	
-0.0531006	0.0413452	0.697545	
-0.0427246	0.0414673	0.697545	
-0.0317383	0.0415222	0.697545	
-0.0830078	0.0423035	0.697545	
-0.0500488	0.0423218	0.697545	
-0.0469971	0.0419373	0.697545	
-0.0744629	0.0425903	0.697545	
-0.0390625	0.0426575	0.697545	
0.0158691	0.0421387	0.697545	
0.00183105	0.0416809	0.697545	
0.0323486	0.0413269	0.697545	
-0.00793457	0.0413147	0.697545	
0.0262451	0.0408325	0.697545	
0.0494385	0.0407166	0.697545	
0.00549316	0.0406982	0.697545	
0	0.0406494	0.697545	
0.0457764	0.0405518	0.697545	
0.0183105	0.0404175	0.697545	
0.0170898	0.0400635	0.697545	
0.010376	0.0400757	0.697545	
0.00183105	0.0400085	0.697545	
0.0537109	0.0396606	0.697545	
0.0427246	0.0391724	0.697545	
-0.0268555	0.0393738	0.697545	
0.0323486	0.0388367	0.680106	
0.0219727	0.0378174	0.680106	
0.0311279	0.0369446	0.680106	
0.0354004	0.0359863	0.680106	
0.0152588	0.0351257	0.680106	
0.0213623	0.0341736	0.680106	
0.0689697	0.033551	0.662667	
0.0012207	0.0331055	0.662667	
0.0317383	0.0326904	0.680106	
0.0634766	0.0329346	0.680106	
0.00488281	0.0327026	0.680106	
0.0750732	0.0333618	0.680106	
-0.0231934	0.0327698	0.680106	
0.0683594	0.0332764	0.680106	
0.0799561	0.0340576	0.680106	
0.0268555	0.0340149	0.680106	
0.0158691	0.0340759	0.662667	
0.0622559	0.0344543	0.662667	
0.0408936	0.0348511	0.662667	
0.0708008	0.0351624	0.662667	
0.0292969	0.0354248	0.662667	
-0.0140381	0.0352905	0.662667	
0.0653076	0.0354004	0.662667	
0.0878906	0.0354248	0.662667	
-0.010376	0.0355286	0.662667	
0.0604248	0.0359497	0.645229	
0.032959	0.0358887	0.645229	
0.0537109	0.0360901	0.645229	
0.043335	0.0361084	0.645229	
0.0201416	0.0360779	0.645229	
0.0695801	0.0365356	0.645229	
0.098877	0.0366272	0.645229	
-0.0195313	0.0367249	0.645229	
0.0598145	0.0368958	0.645229	
0.0909424	0.0372925	0.645229	
0.0274658	0.0372009	0.62779	
0.0622559	0.036731	0.62779	
-0.0115967	0.0365051	0.62779	
0.0274658	0.0365173	0.62779	
0.045166	0.0365906	0.62779	
-0.022583	0.0367554	0.62779	
-0.0183105	0.0366821	0.62779	
0.0396729	0.0367126	0.62779	
0.0152588	0.0363647	0.62779	
0.0115967	0.0363586	0.62779	
-0.0299072	0.0364502	0.62779	
-0.0170898	0.0364807	0.62779	
0.0457764	0.0365173	0.62779	
0.0341797	0.0367004	0.610352	
-0.0634766	0.0369751	0.610352	
0.00244141	0.0365601	0.610352	
0.00976563	0.0363098	0.610352	
-0.0012207	0.0359924	0.610352	
-0.0152588	0.0359375	0.592913	
-0.0372314	0.0359497	0.592913	
0.022583	0.0359985	0.592913	
0.0286865	0.0357361	0.592913	
-0.0653076	0.0359985	0.592913	
-0.0115967	0.0358887	0.592913	
0.020752	0.035791	0.592913	
-0.0512695	0.0360962	0.592913	
-0.0109863	0.0356323	0.592913	
-0.0604248	0.0357971	0.592913	
-0.0170898	0.0355652	0.592913	
0.0128174	0.0348206	0.592913	
-0.0482178	0.035022	0.592913	
-0.0439453	0.0352295	0.592913	
-0.00305176	0.0349426	0.592913	
0.0274658	0.0351501	0.592913	
0.0561523	0.0351746	0.592913	
0.0012207	0.0350342	0.592913	
0.0256348	0.0349609	0.592913	
0.0354004	0.0348816	0.592913	
0.0146484	0.0345703	0.592913	
-0.0360107	0.0346008	0.592913	
-0.00244141	0.0345764	0.592913	
0.0109863	0.0341553	0.592913	
-0.0354004	0.034082	0.592913	
-0.00915527	0.0338562	0.592913	
-0.0665283	0.0336914	0.592913	
0.012207	0.033313	0.592913	
0.0939941	0.033783	0.592913	
-0.0305176	0.0333435	0.592913	
-0.0213623	0.0331665	0.592913	
0.0177002	0.0331848	0.592913	
-0.00305176	0.033197	0.575474	
0.03479	0.0332214	0.575474	
-0.0756836	0.0338989	0.575474	
0	0.0336365	0.575474	
0.0262451	0.0334045	0.575474	
0.0012207	0.0333618	0.575474	
-0.0268555	0.0336304	0.575474	
0.0189209	0.0333618	0.575474	
0.0170898	0.0333496	0.575474	
0.0354004	0.0335327	0.575474	
-0.0128174	0.0335571	0.575474	
-0.020752	0.0337463	0.575474	
0.00671387	0.0332764	0.575474	
0.0219727	0.0330688	0.575474	
-0.0201416	0.0330017	0.575474	
-0.00427246	0.0327209	0.575474	
0.0427246	0.0329285	0.575474	
0.0201416	0.0328186	0.575474	
0.0146484	0.0326111	0.575474	
-0.0134277	0.0325928	0.575474	
0.0378418	0.0327576	0.558036	
0.0482178	0.03255	0.558036	
-0.0231934	0.0327698	0.558036	
-0.0219727	0.0326721	0.558036	
0.032959	0.0323669	0.558036	
0.0152588	0.0324707	0.558036	
0.045166	0.0321716	0.558036	
-0.0219727	0.0321594	0.558036	
0.0158691	0.0316345	0.558036	
0.0604248	0.0314392	0.558036	
0.0195313	0.031366	0.558036	
0.0158691	0.031366	0.558036	
0.0469971	0.0312134	0.540597	
0.0201416	0.0310059	0.540597	
0.0384521	0.0306824	0.540597	
-0.00976563	0.0304871	0.540597	
0.00610352	0.0304077	0.540597	
0.0567627	0.0303223	0.540597	
0.0549316	0.0299927	0.540597	
-0.012207	0.030011	0.540597	
0.0592041	0.0299988	0.540597	
0.0823975	0.0304932	0.540597	
0.0604248	0.0305603	0.540597	
0.0750732	0.0308777	0.540597	
0.0219727	0.030896	0.540597	
0.0787354	0.0309875	0.540597	
0.107422	0.031073	0.540597	
0.0012207	0.0308899	0.540597	
0.0299072	0.0305908	0.540597	
0.0537109	0.0302185	0.523158	
0.0134277	0.0300781	0.523158	
0.0402832	0.0298584	0.523158	
0.0115967	0.0298584	0.523158	
0.0384521	0.0299683	0.523158	
0.0848389	0.030365	0.523158	
0.0543213	0.0306824	0.523158	
0.0366211	0.0308655	0.523158	
0.0811768	0.0312805	0.523158	
0.065918	0.0317871	0.523158	
0.0610352	0.0322815	0.523158	
0.0341797	0.0323242	0.523158	
-0.00244141	0.0321777	0.523158	
0.0695801	0.0324158	0.523158	
0.0756836	0.0328308	0.523158	
-0.0469971	0.032666	0.523158	
-0.0012207	0.0326538	0.523158	
0.0561523	0.0331177	0.523158	
0.0506592	0.0336121	0.523158	
0.0195313	0.0336548	0.523158	
-0.0512695	0.0337952	0.523158	
-0.00305176	0.0335999	0.523158	
0.065918	0.0339722	0.523158	
-0.0311279	0.0336304	0.523158	
0	0.0335144	0.523158	
-0.0286865	0.0335937	0.523158	
-0.022583	0.0333069	0.523158	
0.00427246	0.0332397	0.523158	
-0.0372314	0.0330078	0.523158	
-0.0115967	0.0329529	0.523158	
0.0231934	0.0330566	0.523158	
-0.0128174	0.0327026	0.523158	
-0.043335	0.0326965	0.523158	
-0.010376	0.0327698	0.523158	
-0.00549316	0.03255	0.50572	
0.00732422	0.0320618	0.50572	
-0.032959	0.0323792	0.50572	
-0.0689697	0.0328125	0.50572	
-0.0158691	0.0326172	0.50572	
-0.0158691	0.0326294	0.50572	
-0.0714111	0.0329834	0.50572	
-0.0354004	0.033313	0.50572	
0.012207	0.0333252	0.523158	
-0.0476074	0.0334473	0.50572	
-0.00854492	0.0334412	0.50572	
-0.0848389	0.0336243	0.50572	
0.0012207	0.0335144	0.50572	
-0.00549316	0.0326294	0.50572	
-0.0653076	0.0329773	0.50572	
-0.0476074	0.0332397	0.488281	
-0.022583	0.0332886	0.488281	
-0.0622559	0.0338806	0.488281	
-0.0634766	0.0341675	0.488281	
-0.0866699	0.0342773	0.488281	
-0.065918	0.0349365	0.488281	
-0.0189209	0.0348633	0.488281	
-0.0793457	0.0356445	0.488281	
-0.103149	0.0364075	0.488281	
-0.0787354	0.0370056	0.488281	
-0.0964355	0.0377991	0.488281	
-0.0744629	0.0381897	0.488281	
-0.0976563	0.0390381	0.488281	
-0.119019	0.0400208	0.488281	
-0.0610352	0.040564	0.488281	
-0.0390625	0.0407349	0.488281	
-0.0946045	0.0414795	0.488281	
-0.0543213	0.04198	0.50572	
-0.0292969	0.0418457	0.50572	
-0.0335693	0.04198	0.50572	
-0.0488281	0.0423218	0.50572	
-0.103149	0.043219	0.50572	
-0.0799561	0.0436401	0.488281	
-0.0561523	0.0437195	0.488281	
-0.123901	0.0447266	0.488281	
-0.10376	0.0455444	0.488281	
-0.0769043	0.0459839	0.488281	
-0.0726318	0.0465576	0.488281	
-0.00732422	0.0461792	0.488281	
-0.0793457	0.0467529	0.488281	
-0.0476074	0.0470703	0.488281	
0.0445557	0.0469116	0.488281	
-0.00549316	0.0467712	0.488281	
-0.032959	0.0469421	0.488281	
0.0177002	0.0466492	0.488281	
-0.022583	0.0466736	0.488281	
0.0244141	0.0465332	0.488281	
-0.0280762	0.0467163	0.488281	
-0.0268555	0.0469238	0.488281	
0.0219727	0.0465759	0.488281	
0.0286865	0.0463135	0.488281	
-0.0280762	0.0464722	0.488281	
0.022583	0.046106	0.488281	
0.0512695	0.0457947	0.488281	
0.0189209	0.0453796	0.488281	
0.0671387	0.0453003	0.488281	
0.0311279	0.0453918	0.488281	
0.0476074	0.0450806	0.488281	
0.106812	0.0450745	0.50572	
0.0384521	0.0454468	0.50572	
0.0335693	0.0454834	0.50572	
0.0891113	0.0458374	0.50572	
0.067749	0.0463806	0.488281	
0.111084	0.0470886	0.488281	
0.0341797	0.0473145	0.488281	
0.0762939	0.0476929	0.488281	
0.111084	0.0479553	0.488281	
0.0830078	0.0482422	0.488281	
0.0494385	0.0483704	0.488281	
0.0964355	0.0485229	0.488281	
0.0787354	0.0486511	0.488281	
0.0817871	0.0488586	0.488281	
0.0958252	0.0494751	0.488281	
0.057373	0.0500244	0.488281	
0.0952148	0.0502808	0.488281	
0.088501	0.0504089	0.488281	
0.0311279	0.0502502	0.488281	
0.0531006	0.050769	0.488281	
0.0695801	0.0509033	0.488281	
0.0189209	0.0505859	0.470843	
0.0543213	0.0509338	0.470843	
0.0146484	0.0505676	0.470843	
0.0762939	0.0513	0.470843	
0.119019	0.0518311	0.470843	
0.0488281	0.0520081	0.470843	
0.0482178	0.0524902	0.470843	
0.113525	0.0533386	0.470843	
0.107422	0.054187	0.470843	
0.0970459	0.0551147	0.470843	
0.0238037	0.0549805	0.470843	
0.0585938	0.0554504	0.470843	
0.10376	0.0562561	0.470843	
0.0653076	0.056781	0.453404	
0.0396729	0.0567444	0.453404	
0.0726318	0.0573669	0.453404	
0.0488281	0.0578003	0.453404	
0.10376	0.0587646	0.453404	
0.0823975	0.059259	0.453404	
0.055542	0.0591248	0.453404	
0.10498	0.0600159	0.453404	
0.126343	0.0611206	0.453404	
0.0543213	0.0609497	0.453404	
0.116577	0.0617615	0.453404	
0.140381	0.0630432	0.453404	
0.110474	0.0636719	0.453404	
0.168457	0.065271	0.453404	
0.0970459	0.0653931	0.453404	
0.127563	0.0666565	0.453404	
0.19165	0.0685181	0.453404	
0.13855	0.0692505	0.453404	
0.114746	0.0699219	0.453404	
0.144653	0.0711426	0.453404	
0.112305	0.0716431	0.453404	
0.158691	0.0725952	0.453404	
0.0939941	0.0726685	0.453404	
0.130615	0.0733154	0.453404	
0.163574	0.074762	0.453404	
0.127563	0.0752441	0.453404	
0.131226	0.0755249	0.453404	
0.128784	0.0760254	0.453404	
0.128784	0.0763489	0.453404	
0.13855	0.0769897	0.453404	
0.088501	0.0768982	0.453404	
0.0714111	0.0764221	0.453404	
0.106812	0.0768799	0.453404	
0.0915527	0.0774048	0.453404	
0.00854492	0.0765442	0.453404	
0.0549316	0.0765503	0.453404	
0.0787354	0.0770447	0.453404	
0.0671387	0.0773804	0.453404	
0.0842285	0.0777344	0.453404	
0.0268555	0.0769714	0.453404	
0.0579834	0.0767517	0.453404	
0.108032	0.0772705	0.453404	
0.012207	0.0761536	0.470843	
0.0384521	0.0755005	0.470843	
0.0762939	0.0754944	0.470843	
0.0262451	0.0750305	0.470843	
0.0439453	0.0753967	0.470843	
-0.0323486	0.0749268	0.453404	
0.00488281	0.0744995	0.453404	
0.0775146	0.0748291	0.453404	
0.0500488	0.0752747	0.453404	
-0.0201416	0.0751465	0.453404	
0.0476074	0.0754456	0.453404	
0.0427246	0.075647	0.453404	
0.0402832	0.0758057	0.453404	
0.0231934	0.0757568	0.453404	
-0.0201416	0.0756897	0.453404	
0.022583	0.0756958	0.453404	
0.020752	0.0756165	0.453404	
-0.0512695	0.0758484	0.453404	
-0.0195313	0.0758179	0.453404	
-0.000610352	0.0753113	0.453404	
-0.0238037	0.0753601	0.453404	
0.0268555	0.0749573	0.470843	
-0.032959	0.0749756	0.470843	
0.0311279	0.0748108	0.453404	
0.0732422	0.0744751	0.453404	
0.00366211	0.0741272	0.453404	
0.00610352	0.0738525	0.453404	
0.0256348	0.0732178	0.453404	
0.0170898	0.0727112	0.453404	
0.0396729	0.0719971	0.453404	
-0.0360107	0.0720154	0.453404	
0	0.0712524	0.453404	
0.0189209	0.0703308	0.453404	
0.032959	0.0698303	0.453404	
-0.0115967	0.0694519	0.453404	
0.0372314	0.0688599	0.470843	
0.0256348	0.0683289	0.470843	
0.000610352	0.0675171	0.470843	
-0.0012207	0.066571	0.470843	
-0.0280762	0.0662781	0.470843	
-0.00854492	0.0654114	0.470843	
0.0323486	0.0648499	0.470843	
-0.0866699	0.0654053	0.470843	
-0.000610352	0.0648804	0.470843	
0.010376	0.0642883	0.453404	
0.0140381	0.0642395	0.453404	
0.055542	0.0642517	0.453404	
0.00793457	0.0641846	0.453404	
0.0750732	0.0641724	0.453404	
0.0775146	0.0637573	0.470843	
0.022583	0.0634949	0.470843	
0.065918	0.0636719	0.470843	
0.0567627	0.0631042	0.470843	
0.0402832	0.0624329	0.470843	
0.0469971	0.0619324	0.470843	
0.0109863	0.0618042	0.470843	
0.0244141	0.0614624	0.470843	
0.0567627	0.0609924	0.470843	
0.032959	0.0606689	0.470843	
0.0195313	0.0604675	0.453404	
0.0866699	0.0606079	0.453404	
0.057373	0.0606934	0.453404	
0.0494385	0.0601501	0.453404	
0.0775146	0.0601013	0.453404	
0.0640869	0.0601868	0.453404	
0.0701904	0.0598389	0.453404	
0.106201	0.0596375	0.453404	
0.00183105	0.0591125	0.453404	
0.0762939	0.0587097	0.453404	
0.0952148	0.0582581	0.453404	
0.0616455	0.0577698	0.453404	
0.0805664	0.0568909	0.453404	
0.0115967	0.0560364	0.453404	
0.0714111	0.0554749	0.453404	
0.0921631	0.05448	0.453404	
0.0354004	0.0534485	0.453404	
0.032959	0.0526306	0.453404	
0.0762939	0.051947	0.453404	
0.0549316	0.0513733	0.453404	
0.109863	0.050885	0.453404	
0.03479	0.050293	0.470843	
0.0341797	0.0493286	0.470843	
0.0842285	0.0485352	0.470843	
0.100098	0.0482605	0.470843	
0.0152588	0.0471008	0.470843	
0.0585938	0.0463989	0.470843	
0.0445557	0.0455566	0.470843	
0.0732422	0.0449036	0.470843	
0.0933838	0.0449524	0.470843	
0.0653076	0.0448914	0.470843	
0.0213623	0.0440369	0.470843	
0.0744629	0.043866	0.470843	
0.00793457	0.0438599	0.470843	
0.0579834	0.0438904	0.470843	
0.0305176	0.0434082	0.470843	
-0.0152588	0.0428894	0.470843	
0.0366211	0.0424133	0.470843	
-0.0152588	0.0422974	0.470843	
0.0317383	0.0420349	0.470843	
0.0878906	0.0418335	0.470843	
0.0457764	0.0421692	0.470843	
0.0396729	0.0421814	0.470843	
0.0561523	0.04198	0.453404	
0.0469971	0.0421875	0.453404	
0.0701904	0.04245	0.453404	
0.0128174	0.0422546	0.453404	
0.0421143	0.042627	0.453404	
0.0915527	0.0427673	0.453404	
0.0750732	0.0430176	0.453404	
0.0537109	0.0433533	0.453404	
0.0946045	0.0438232	0.453404	
0.0793457	0.0441895	0.470843	
0.0549316	0.0443359	0.470843	
0.0366211	0.0444702	0.470843	
0	0.0442688	0.470843	
0.0146484	0.0441895	0.470843	
0.0115967	0.0440979	0.470843	
-0.0506592	0.0440918	0.470843	
0.00732422	0.0439697	0.470843	
-0.010376	0.0440674	0.470843	
-0.00488281	0.0438782	0.470843	
0.0158691	0.0437683	0.470843	
-0.0256348	0.0436951	0.470843	
0.0610352	0.0439941	0.470843	
0.0787354	0.0440491	0.470843	
-0.0128174	0.0441406	0.470843	
-0.055542	0.044635	0.470843	
-0.0415039	0.0447937	0.470843	
-0.0653076	0.0452759	0.470843	
-0.0109863	0.044989	0.470843	
-0.126953	0.0458984	0.453404	
-0.125122	0.0471497	0.453404	
-0.103149	0.0479919	0.453404	
-0.0976563	0.0486389	0.453404	
-0.140991	0.0499329	0.453404	
-0.0878906	0.0504395	0.453404	
-0.0982666	0.0511658	0.453404	
-0.0946045	0.0521057	0.453404	
-0.130005	0.0533936	0.453404	
-0.150146	0.0546143	0.470843	
-0.103149	0.0555603	0.470843	
-0.0811768	0.0560486	0.470843	
-0.166016	0.056842	0.470843	
-0.115967	0.0579956	0.470843	
-0.10376	0.0589294	0.470843	
-0.119019	0.0599792	0.470843	
-0.078125	0.0602051	0.470843	
-0.137939	0.0615051	0.470843	
-0.108032	0.0618347	0.470843	
-0.0415039	0.0614746	0.470843	
-0.117798	0.0624268	0.470843	
-0.0970459	0.062738	0.470843	
-0.0683594	0.062854	0.470843	
-0.10437	0.0634949	0.470843	
-0.0848389	0.0638733	0.470843	
-0.0854492	0.0646179	0.470843	
-0.0994873	0.0653687	0.470843	
-0.0878906	0.0656799	0.470843	
-0.0689697	0.06604	0.470843	
-0.142822	0.0672729	0.470843	
-0.067749	0.0670837	0.470843	
-0.0646973	0.067157	0.470843	
-0.0842285	0.0675049	0.470843	
-0.0634766	0.0673645	0.470843	
-0.0567627	0.0672913	0.470843	
-0.0390625	0.06698	0.470843	
-0.0146484	0.0660645	0.470843	
-0.0842285	0.0668884	0.470843	
-0.010376	0.0662292	0.470843	
0.00305176	0.0653076	0.470843	
-0.0335693	0.0650269	0.470843	
0.012207	0.0643433	0.470843	
-0.0323486	0.0645508	0.470843	
0.0164795	0.0640015	0.470843	
0.0323486	0.0634033	0.470843	
0.0128174	0.0631775	0.470843	
0.00854492	0.0629333	0.470843	
0.0378418	0.0625488	0.453404	
0.0390625	0.0623901	0.453404	
0.0488281	0.0617798	0.453404	
-0.0354004	0.0617859	0.453404	
0.0323486	0.0617676	0.453404	
0.0842285	0.0617676	0.470843	
0.0427246	0.0611938	0.470843	
-0.0177002	0.0612183	0.470843	
0.0604248	0.0612366	0.470843	
0.0457764	0.0612488	0.470843	
0.0793457	0.0613098	0.470843	
0.0683594	0.0610596	0.470843	
0.0799561	0.0612061	0.470843	
0.088501	0.0618774	0.470843	
0.124512	0.0623779	0.470843	
0.0152588	0.0624512	0.470843	
0.0939941	0.0628113	0.470843	
0.117188	0.063678	0.470843	
0.0683594	0.064209	0.470843	
0.0805664	0.0646484	0.470843	
0.00488281	0.0645447	0.470843	
0.0262451	0.0644897	0.470843	
0.105591	0.0646667	0.470843	
0.0305176	0.0645142	0.470843	
0.000610352	0.0641235	0.470843	
0.0280762	0.0638428	0.470843	
0.0152588	0.0635254	0.470843	
0.0476074	0.0632996	0.470843	
0.00671387	0.0632385	0.470843	
0.0231934	0.0630493	0.470843	
0.0531006	0.0626648	0.470843	
0.0488281	0.0624023	0.470843	
0.0012207	0.0618774	0.470843	
0.0775146	0.0617065	0.470843	
0.0866699	0.0617798	0.470843	
0.0549316	0.0617798	0.470843	
0.0616455	0.06203	0.470843	
0.00427246	0.0620728	0.470843	
0.0604248	0.0625305	0.470843	
0.111694	0.0635315	0.470843	
0.00793457	0.0631042	0.470843	
0.0512695	0.0635437	0.470843	
0.0604248	0.0640442	0.470843	
0.0549316	0.0645447	0.470843	
0.0909424	0.0652954	0.470843	
0.0152588	0.0651917	0.470843	
0.101929	0.0656006	0.470843	
0.100098	0.0658142	0.470843	
0.0457764	0.0661438	0.470843	
0.0543213	0.0661316	0.470843	
0.0854492	0.066571	0.470843	
0.032959	0.0662476	0.470843	
0.043335	0.066571	0.470843	
0.0323486	0.065625	0.470843	
0.0500488	0.0648743	0.470843	
0.0646973	0.0644897	0.470843	
0.0708008	0.0642212	0.470843	
0.0183105	0.0629944	0.470843	
0.0836182	0.0629517	0.470843	
0.0744629	0.0627136	0.470843	
0.0567627	0.0623352	0.470843	
0.0805664	0.0618408	0.470843	
0.0421143	0.0607605	0.470843	
0.0561523	0.0602905	0.470843	
0.0640869	0.0601196	0.470843	
0.00244141	0.0584839	0.470843	
0.114136	0.0584656	0.470843	
0.137329	0.0588013	0.470843	
0.0665283	0.0582764	0.488281	
0.146484	0.05896	0.488281	
0.00244141	0.057605	0.488281	
0.043335	0.056958	0.488281	
0.0994873	0.0575378	0.488281	
0.0799561	0.0571594	0.470843	
0.0427246	0.0566162	0.470843	
0.106201	0.0569946	0.470843	
0.045166	0.0564026	0.470843	
0.100708	0.0565613	0.470843	
0.0878906	0.0565857	0.470843	
-0.00427246	0.0556335	0.470843	
0.0738525	0.0554932	0.470843	
0.0372314	0.0551758	0.470843	
-0.0280762	0.0540283	0.470843	
0.00671387	0.053418	0.470843	
0.0305176	0.0530762	0.470843	
0.0128174	0.0523621	0.470843	
0.0494385	0.0522217	0.470843	
0.0335693	0.0519897	0.470843	
0.0933838	0.052533	0.470843	
0.0958252	0.0533447	0.470843	
0.00915527	0.052594	0.470843	
0.022583	0.0527161	0.470843	
-0.0402832	0.0530884	0.470843	
-0.175171	0.0545044	0.488281	
-0.106201	0.0554443	0.488281	
-0.0872803	0.0559937	0.50572	
-0.123901	0.0570679	0.50572	
-0.0854492	0.0575989	0.523158	
-0.124512	0.0587158	0.540597	
-0.0976563	0.0596069	0.540597	
-0.0311279	0.0595398	0.558036	
0.0140381	0.0592896	0.558036	
0.0354004	0.0591553	0.575474	
-0.0457764	0.059259	0.575474	
0.0109863	0.0590454	0.575474	
0.0708008	0.0589111	0.592913	
0.0463867	0.0589478	0.592913	
-0.0286865	0.0590576	0.610352	
-0.0201416	0.0586548	0.610352	
0.0164795	0.0583618	0.610352	
0	0.0575684	0.62779	
-0.0109863	0.0569946	0.62779	
-0.0256348	0.0564514	0.62779	
0.00244141	0.0555908	0.645229	
0.0512695	0.0548584	0.645229	
-0.00854492	0.0547913	0.645229	
0.0543213	0.0543945	0.645229	
0.0567627	0.0537903	0.662667	
-0.00610352	0.0531677	0.662667	
0.118408	0.0535461	0.662667	
0.0531006	0.0540283	0.662667	
0.127563	0.0550415	0.662667	
0.201416	0.0559998	0.662667	
0.110474	0.0567993	0.662667	
0.065918	0.0574524	0.662667	
0.125122	0.0584229	0.662667	
0.200195	0.0602722	0.662667	
0.175171	0.0615479	0.662667	
0.0299072	0.0617798	0.662667	
-0.108643	0.0626343	0.662667	
-0.0164795	0.0622681	0.680106	
0.10498	0.0628296	0.680106	
0.0579834	0.0633972	0.697545	
0.0598145	0.0632202	0.697545	
-0.0146484	0.0625	0.714983	
-0.229492	0.0642456	0.732422	
-0.0152588	0.0637817	0.732422	
-0.0708008	0.064447	0.74986	
-0.00366211	0.0638794	0.767299	
-0.137939	0.0641418	0.784738	
-0.345459	0.0675171	0.802176	
-0.274658	0.069751	0.819615	
-0.109253	0.0702393	0.837054	
-0.238647	0.0720764	0.854492	
-0.20813	0.0732483	0.871931	
-0.116577	0.0742615	0.889369	
-0.100098	0.0742432	0.924247	
-0.0695801	0.073938	0.941685	
-0.0427246	0.0739075	0.976562	
0.032959	0.0736938	0.994001	
0.0811768	0.0736511	1.01144	
-0.022583	0.0735474	1.04632	
0.0537109	0.0736511	1.06376	
0.022583	0.0735535	1.09863	
0.055542	0.0736084	1.11607	
-0.0494385	0.0734558	1.15095	
-0.140381	0.0741516	1.16839	
-0.120239	0.0751709	1.18583	
-0.118408	0.0755188	1.2207	
-0.012207	0.0748962	1.25558	
-0.108032	0.0754089	1.29046	
-0.0506592	0.0751099	1.32533	
-0.065918	0.0753479	1.36021	
-0.112915	0.0759155	1.41253	
-0.135498	0.0766296	1.44741	
0.0274658	0.0768799	1.49972	
-0.0805664	0.0765442	1.55204	
-0.0360107	0.075531	1.60435	
-0.0305176	0.0751709	1.65667	
-0.221558	0.0759216	1.69155	
-0.111694	0.0770142	1.74386	
-0.0335693	0.0769165	1.77874	
-0.0256348	0.076178	1.81362	
0.220947	0.0775879	1.86593	
0.0836182	0.0779968	1.90081	
0.126953	0.0782043	1.93569	
0.0195313	0.077948	1.988	
0.00610352	0.077002	2.05776	
0.146484	0.0775879	2.11007	
0.0860596	0.0784058	2.17983	
0.0622559	0.0782898	2.26702	
-0.286865	0.0807861	2.33677	
-0.358276	0.0840881	2.40653	
-0.401001	0.088031	2.47628	
-0.533447	0.0930603	2.54604	
-0.509033	0.0980225	2.61579	
-0.19104	0.0994385	2.68555	
-0.374756	0.10285	2.73786	
-0.116577	0.103082	2.80762	
-0.0335693	0.10246	2.85993	
-0.376587	0.106134	2.92969	
-0.189209	0.1078	2.982	
-0.256348	0.109961	3.05176	
-0.2948	0.111157	3.12151	
-0.407715	0.114172	3.19127	
-0.601807	0.119318	3.27846	
-0.639648	0.124475	3.36565	
-0.561523	0.129236	3.45285	
-0.545654	0.133447	3.54004	
-0.426636	0.136737	3.62723	
-0.323486	0.139661	3.71443	
-0.186157	0.141382	3.80162	
0.105591	0.142084	3.87137	
0.0238037	0.141864	3.95857	
0.170288	0.143457	4.02832	
0.258789	0.145337	4.09807	
0.0915527	0.145789	4.16783	
-0.0231934	0.145734	4.22015	
0.144043	0.146973	4.2899	
0.0335693	0.147144	4.35965	
-0.0921631	0.148065	4.42941	
-0.151367	0.149469	4.49916	
-0.371704	0.15293	4.56892	
-0.402222	0.156927	4.62123	
-0.278931	0.159204	4.67355	
-0.100708	0.160126	4.7433	
0.00915527	0.159674	4.79562	
0.0976563	0.160083	4.8305	
0.0964355	0.160986	4.88281	
0.179443	0.161597	4.93513	
-0.136719	0.162433	4.97001	
-0.203247	0.16319	5.02232	
-0.0341797	0.161517	5.0572	
-0.231323	0.162726	5.10951	
-0.437622	0.166443	5.16183	
-0.464478	0.169836	5.21415	
-0.67688	0.174603	5.26646	
-0.321655	0.176068	5.31878	
-0.200806	0.177777	5.38853	
-0.108032	0.177771	5.45829	
0.0390625	0.177997	5.5106	
0.189819	0.178845	5.58036	
-0.0439453	0.178705	5.63267	
-0.00549316	0.178162	5.66755	
0.134888	0.179364	5.71987	
0.0708008	0.177777	5.75474	
-0.0964355	0.178589	5.77218	
-0.246582	0.180347	5.80706	
-0.282593	0.183136	5.8245	
-0.258789	0.184344	5.84194	
-0.418701	0.185077	5.85938	
-0.316162	0.185492	5.87681	
-0.220337	0.186603	5.89425	
-0.112305	0.185339	5.91169	
-0.0158691	0.183417	5.92913	
-0.325928	0.18551	5.94657	
-0.266113	0.18717	5.94657	
0.00976563	0.186572	5.96401	
-0.114136	0.187286	5.98145	
-0.345459	0.190411	5.99888	
-0.157471	0.191174	5.99888	
-0.141602	0.192365	6.01632	
-0.209351	0.193921	6.03376	
-0.219727	0.195892	6.0512	
-0.124512	0.196582	6.0512	
-0.0152588	0.19624	6.06864	
-0.0231934	0.195068	6.08608	
-0.00793457	0.193945	6.10352	
-0.0146484	0.192908	6.12095	
0.0897217	0.193683	6.13839	
0.200195	0.194604	6.15583	
0.194092	0.196039	6.17327	
-0.0701904	0.196082	6.19071	
-0.0177002	0.195129	6.22559	
0.0836182	0.194611	6.24302	
-0.316772	0.197504	6.26046	
-0.52124	0.20191	6.2779	
-0.582275	0.207373	6.31278	
-0.649414	0.213562	6.33022	
-0.662842	0.217975	6.34766	
-0.526733	0.222125	6.38253	
-0.299683	0.224786	6.41741	
-0.184937	0.226379	6.45229	
-0.0769043	0.224939	6.48717	
-0.13855	0.225488	6.52204	
0.167236	0.225891	6.53948	
0.470581	0.230402	6.57436	
0.174561	0.232086	6.60924	
0.0012207	0.230634	6.64411	
-0.223389	0.232007	6.66155	
-0.10498	0.232434	6.67899	
-0.245972	0.232025	6.69643	
-0.570068	0.234143	6.71387	
-0.324097	0.233374	6.73131	
-0.298462	0.231024	6.74874	
-0.36377	0.229572	6.76618	
-0.371704	0.231378	6.78362	
-0.558472	0.233215	6.80106	
-0.199585	0.234045	6.8185	
-0.128174	0.234991	6.83594	
-0.272217	0.233948	6.85338	
-0.0872803	0.232928	6.88825	
-0.0134277	0.230499	6.90569	
-0.311279	0.230664	6.92313	
-0.134888	0.227936	6.94057	
-0.175171	0.223669	6.94057	
-0.0463867	0.217737	6.95801	
-0.352783	0.215649	6.97545	
-0.184326	0.212036	6.97545	
-0.137329	0.209143	6.99289	
-0.12207	0.207129	6.99289	
-0.166626	0.206934	7.01032	
-0.298462	0.208862	7.02776	
-0.357056	0.212195	7.0452	
-0.266724	0.213159	7.06264	
-0.128784	0.211859	7.08008	
0.294189	0.213885	7.09752	
0.067749	0.214331	7.11496	
0.0891113	0.213782	7.13239	
0.186768	0.215314	7.14983	
0.268555	0.217078	7.16727	
-0.0628662	0.216193	7.18471	
0.088501	0.213361	7.21959	
-0.0250244	0.209589	7.23703	
-0.10498	0.207849	7.25446	
-0.390625	0.210748	7.2719	
-0.553589	0.216193	7.30678	
-0.353394	0.21875	7.32422	
-0.380249	0.221588	7.34166	
-0.388184	0.223676	7.37653	
-0.2948	0.225256	7.39397	
-0.635986	0.229584	7.41141	
-0.315552	0.232397	7.42885	
-0.108032	0.231165	7.44629	
-0.444946	0.231238	7.46373	
-0.197754	0.228571	7.4986	
0.177612	0.223578	7.51604	
0.130615	0.221667	7.53348	
-0.115356	0.220813	7.55092	
-0.239258	0.222125	7.5858	
-0.217896	0.223914	7.60324	
-0.0354004	0.222369	7.63811	
-0.397949	0.225909	7.65555	
-0.432129	0.230176	7.67299	
-0.72937	0.236121	7.70787	
-0.568237	0.241095	7.72531	
-0.443115	0.244562	7.76018	
-0.17334	0.243829	7.77762	
-0.0415039	0.241418	7.8125	
-0.0280762	0.239111	7.82994	
0.0585938	0.23551	7.86482	
-0.10498	0.233398	7.88225	
-0.0726318	0.231921	7.89969	
-0.135498	0.232153	7.93457	
-0.0946045	0.232941	7.95201	
-0.387573	0.233557	7.98689	
-0.422363	0.23512	8.00432	
-0.358276	0.238605	8.02176	
-0.244141	0.239905	8.0392	
-0.346069	0.239911	8.05664	
-0.264282	0.240979	8.07408	
-0.164185	0.241205	8.09152	
-0.0445557	0.239557	8.10896	
-0.0488281	0.237848	8.10896	
-0.0964355	0.237567	8.10896	
0.279541	0.24021	8.1264	
0.430908	0.244287	8.1264	
0.181274	0.246021	8.10896	
0.132446	0.247198	8.10896	
0.101318	0.247314	8.10896	
0.285645	0.248169	8.10896	
-0.0701904	0.24693	8.10896	
-0.174561	0.247974	8.10896	
-0.133667	0.249133	8.09152	
-0.289917	0.251196	8.09152	
-0.584106	0.25387	8.09152	
-0.491943	0.253577	8.09152	
-0.494385	0.252698	8.09152	
-0.365601	0.24986	8.09152	
-0.17334	0.244965	8.09152	
-0.151367	0.241211	8.09152	
-0.145264	0.239667	8.09152	
-0.0695801	0.238513	8.09152	
0.144043	0.239185	8.09152	
-0.217285	0.239972	8.09152	
0.0964355	0.239264	8.09152	
-0.180054	0.236359	8.09152	
-0.197144	0.236584	8.10896	
-0.133667	0.237909	8.10896	
-0.296021	0.238635	8.10896	
-0.407715	0.241663	8.10896	
-0.339355	0.242596	8.10896	
-0.0524902	0.237421	8.10896	
-0.067749	0.234857	8.10896	
0.0750732	0.232623	8.10896	
0.0170898	0.229156	8.09152	
-0.000610352	0.225446	8.09152	
0.274048	0.222601	8.09152	
0.164185	0.222247	8.09152	
0.112915	0.222095	8.09152	
-0.0671387	0.220044	8.09152	
-0.20752	0.221246	8.07408	
-0.36377	0.22475	8.07408	
-0.374756	0.225385	8.07408	
-0.32959	0.227332	8.05664	
-0.299683	0.228577	8.05664	
-0.233154	0.230444	8.05664	
-0.163574	0.228552	8.05664	
0.141602	0.228125	8.05664	
0.123901	0.227991	8.05664	
0.268555	0.229456	8.05664	
-0.0976563	0.228766	8.05664	
0.107422	0.226855	8.05664	
-0.0799561	0.224084	8.05664	
0.219727	0.223615	8.05664	
-0.112915	0.223456	8.05664	
-0.480347	0.225317	8.05664	
-0.655518	0.231195	8.07408	
-0.627441	0.236578	8.07408	
-0.234375	0.237054	8.07408	
-0.168457	0.236053	8.09152	
-0.338745	0.238812	8.10896	
-0.322266	0.24115	8.1264	
-0.574951	0.246649	8.14383	
-0.219727	0.247797	8.17871	
-0.137329	0.245264	8.21359	
-0.065918	0.240387	8.24847	
-0.0592041	0.237445	8.28334	
0.0170898	0.233813	8.31822	
0.162354	0.231555	8.3531	
0.0671387	0.229279	8.38797	
0.250244	0.225421	8.40541	
0.0671387	0.222937	8.42285	
0.119019	0.223047	8.44029	
0.289307	0.22149	8.44029	
-0.0286865	0.2198	8.44029	
-0.303955	0.221063	8.44029	
-0.363159	0.223389	8.44029	
-0.372925	0.225964	8.44029	
-0.319214	0.226764	8.44029	
-0.0927734	0.225513	8.44029	
-0.126953	0.226428	8.44029	
-0.0921631	0.22337	8.44029	
0.160522	0.220654	8.44029	
0.175781	0.215118	8.42285	
0.195313	0.211389	8.42285	
0.0524902	0.207483	8.42285	
0.0518799	0.206268	8.42285	
0.197144	0.207825	8.40541	
0.0805664	0.20835	8.40541	
-0.184937	0.209613	8.38797	
-0.401001	0.212573	8.37054	
-0.308228	0.214929	8.37054	
-0.0366211	0.21394	8.3531	
0.284424	0.215839	8.3531	
0.253296	0.214496	8.3531	
0.108643	0.211359	8.3531	
0.0854492	0.20863	8.33566	
-0.00915527	0.206281	8.33566	
0.244141	0.205261	8.33566	
-0.163574	0.204254	8.3531	
-0.13916	0.204004	8.3531	
-0.113525	0.204694	8.3531	
-0.352173	0.207727	8.3531	
-0.375977	0.210522	8.37054	
-0.287476	0.210602	8.37054	
0.00549316	0.206348	8.38797	
0.31311	0.207666	8.38797	
0.385132	0.210193	8.40541	
0.176392	0.210944	8.42285	
0.180664	0.209894	8.44029	
0.0640869	0.209833	8.45773	
-0.408325	0.21217	8.49261	
-0.765381	0.218488	8.51004	
-0.289917	0.218488	8.54492	
-0.114746	0.213794	8.5798	
-0.270386	0.211578	8.61468	
-0.19104	0.208545	8.64955	
-0.313721	0.208026	8.68443	
-0.351563	0.209808	8.71931	
-0.164795	0.209943	8.75419	
-0.15564	0.210046	8.77162	
-0.274658	0.212097	8.8065	
-0.479126	0.215448	8.84138	
-0.337524	0.21665	8.85882	
-0.264893	0.218335	8.89369	
-0.175171	0.218286	8.92857	
-0.0396729	0.216711	8.94601	
0.0646973	0.216022	8.98089	
0.0408936	0.21347	9.01576	
0.396729	0.213361	9.0332	
0.495605	0.214923	9.06808	
0.24292	0.216827	9.08552	
0.057373	0.216724	9.10296	
0.106201	0.217035	9.1204	
0.213013	0.218994	9.13783	
0.00488281	0.219037	9.15527	
-0.308838	0.219385	9.15527	
-0.0720215	0.218463	9.17271	
-0.0384521	0.217719	9.17271	
-0.532227	0.222369	9.19015	
-0.220947	0.222504	9.19015	
-0.360718	0.222473	9.20759	
0.0335693	0.219061	9.22503	
0.324707	0.219012	9.24247	
0.351563	0.219531	9.24247	
0.48584	0.222058	9.25991	
0.408936	0.224512	9.27734	
0.246582	0.225562	9.29478	
0.265503	0.226978	9.31222	
0.100708	0.225299	9.32966	
0.157471	0.225897	9.3471	
0.0500488	0.225323	9.38198	
-0.326538	0.227789	9.39941	
-0.736694	0.232959	9.43429	
-0.249023	0.23432	9.46917	
-0.0286865	0.229803	9.50405	
-0.161743	0.224866	9.53892	
0.0683594	0.219275	9.5738	
0.263062	0.219562	9.60868	
-0.0811768	0.218689	9.66099	
0.0158691	0.21546	9.69587	
0.133667	0.213574	9.73075	
0.119019	0.209015	9.76563	
-0.426636	0.211084	9.8005	
-0.485229	0.214563	9.83538	
-0.371094	0.217615	9.8877	
-0.357666	0.220599	9.92257	
-0.318604	0.223615	9.97489	
-0.454712	0.226538	10.0098	
0.0012207	0.225879	10.0621	
0.493164	0.228308	10.1144	
0.722046	0.234857	10.1667	
0.418701	0.237854	10.219	
0.0695801	0.235657	10.2539	
-0.239258	0.237762	10.3062	
-0.238647	0.237109	10.3585	
-0.291748	0.236395	10.3934	
-0.498657	0.237653	10.4283	
-0.786133	0.242322	10.4632	
-0.348511	0.244879	10.498	
-0.131836	0.244928	10.5329	
-0.0488281	0.244495	10.5504	
0.0775146	0.243665	10.5852	
-0.125122	0.243158	10.6027	
-0.10376	0.242242	10.6201	
-0.205078	0.243768	10.655	
-0.521851	0.248468	10.6724	
-0.643311	0.25293	10.6899	
-0.845337	0.260577	10.7073	
-0.755005	0.266278	10.7247	
-0.578003	0.268048	10.7422	
-0.367432	0.26864	10.7596	
-0.197754	0.270251	10.7771	
0.189819	0.269305	10.7771	
-0.137329	0.268146	10.7771	
0.0396729	0.267456	10.7945	
-0.0488281	0.26709	10.7945	
0.0158691	0.267157	10.7945	
0.0579834	0.265295	10.7945	
0.078125	0.264441	10.7771	
-0.163574	0.264685	10.7771	
-0.00793457	0.263629	10.7596	
-0.286865	0.262976	10.7422	
-0.289307	0.262109	10.7247	
-0.408325	0.263318	10.7073	
-0.169067	0.264954	10.6899	
-0.187378	0.263696	10.6724	
-0.300293	0.262848	10.6376	
-0.233765	0.263422	10.6201	
-0.366821	0.265283	10.6027	
-0.403442	0.268677	10.5852	
-0.325317	0.267847	10.5678	
-0.197144	0.262164	10.5678	
-0.300903	0.262274	10.5504	
-0.357666	0.264703	10.5504	
-0.238647	0.264386	10.5329	
-0.131226	0.263788	10.5329	
-0.0115967	0.260767	10.5329	
-0.055542	0.257806	10.5329	
-0.256348	0.258722	10.5329	
-0.189209	0.259058	10.5155	
-0.0366211	0.256677	10.5155	
-0.324097	0.255127	10.5155	
-0.633545	0.258087	10.5155	
-0.400391	0.259442	10.5155	
-0.116577	0.258856	10.5155	
-0.308228	0.261542	10.5155	
-0.114746	0.262042	10.5155	
-0.307617	0.264709	10.5155	
-0.17334	0.262476	10.5155	
0.0982666	0.258502	10.5155	
-0.0305176	0.256378	10.5329	
0.0384521	0.256189	10.5329	
0.158691	0.256714	10.5329	
-0.0170898	0.254755	10.5504	
-0.144043	0.256146	10.5504	
-0.479736	0.257855	10.5678	
-0.273438	0.259869	10.5678	
0.0787354	0.260272	10.5852	
-0.361328	0.258563	10.5852	
-0.55542	0.261908	10.6027	
-0.466919	0.26297	10.6027	
-0.427246	0.266907	10.6027	
-0.341187	0.267072	10.6201	
-0.137329	0.264929	10.6201	
0.0195313	0.260266	10.6201	
-0.0970459	0.257147	10.6376	
0.327759	0.257959	10.6376	
0.272827	0.258032	10.6376	
0.231323	0.259338	10.6376	
0.258789	0.260352	10.6376	
0.282593	0.262677	10.6201	
-0.0396729	0.259808	10.6201	
0.0286865	0.252728	10.6201	
-0.0341797	0.25058	10.6201	
-0.43457	0.254639	10.6201	
-0.510254	0.258124	10.6201	
-0.307007	0.26051	10.6201	
-0.109253	0.258972	10.6201	
-0.148926	0.25965	10.6027	
0.022583	0.259717	10.6027	
-0.0244141	0.258624	10.6027	
-0.169067	0.259125	10.5852	
0.231323	0.257172	10.5852	
0.162964	0.253949	10.5678	
-0.0842285	0.25108	10.5678	
-0.135498	0.248859	10.5678	
-0.158691	0.24726	10.5504	
-0.0390625	0.243103	10.5504	
-0.197754	0.245068	10.5504	
-0.169067	0.241827	10.5329	
0.00549316	0.234662	10.5329	
-0.112305	0.231598	10.5329	
-0.285034	0.233752	10.5155	
-0.172119	0.233081	10.498	
0.0372314	0.231067	10.498	
0.150757	0.229657	10.4806	
0.111084	0.225781	10.4632	
0.24292	0.220349	10.4457	
0.241089	0.219275	10.4283	
0.251465	0.220471	10.4109	
0.289917	0.222882	10.376	
0.249634	0.224603	10.3585	
0.0823975	0.224176	10.3237	
-0.216675	0.225305	10.2888	
-0.123901	0.224493	10.2713	
0.142822	0.220703	10.2365	
0.214844	0.216418	10.2016	
0.0567627	0.208533	10.1667	
-0.183105	0.202814	10.1318	
-0.238647	0.19942	10.097	
0.0488281	0.196234	10.0621	
-0.176392	0.196021	10.0446	
0.0189209	0.194312	10.0098	
-0.172729	0.194666	9.99233	
-0.247192	0.196741	9.95745	
-0.109253	0.197345	9.94001	
-0.00854492	0.197272	9.92257	
-0.352783	0.20022	9.92257	
-0.219116	0.20163	9.90513	
-0.106201	0.201056	9.90513	
-0.167847	0.202655	9.8877	
-0.107422	0.200861	9.8877	
-0.122681	0.199194	9.8877	
-0.00671387	0.195178	9.87026	
-0.0836182	0.194324	9.87026	
-0.0689697	0.19314	9.85282	
0.291748	0.193054	9.85282	
0.213623	0.192853	9.83538	
0.198364	0.191168	9.83538	
0.386353	0.190997	9.81794	
-0.0183105	0.187927	9.8005	
0.262451	0.18858	9.78306	
0.369873	0.18927	9.76563	
0.0518799	0.186212	9.74819	
-0.078125	0.184607	9.73075	
0.00915527	0.183386	9.71331	
-0.340576	0.186676	9.69587	
-0.464478	0.190765	9.67843	
-0.371094	0.191913	9.66099	
-0.184937	0.19187	9.64355	
-0.314941	0.194653	9.62612	
-0.275879	0.194171	9.60868	
-0.257568	0.190411	9.60868	
-0.279541	0.189203	9.59124	
-0.0604248	0.188641	9.5738	
0.112915	0.186688	9.5738	
0.0744629	0.186285	9.55636	
0.020752	0.183417	9.55636	
-0.200195	0.183685	9.53892	
-0.0262451	0.182965	9.53892	
0.0756836	0.183417	9.53892	
0.206299	0.185095	9.52148	
-0.195313	0.185461	9.50405	
-0.137939	0.18667	9.48661	
-0.12146	0.186444	9.46917	
-0.150757	0.183154	9.43429	
-0.145264	0.181873	9.41685	
-0.0390625	0.181476	9.38198	
-0.108032	0.178943	9.3471	
-0.148315	0.174872	9.32966	
0.0946045	0.171149	9.31222	
0.0952148	0.167828	9.27734	
0.100708	0.165424	9.25991	
0.0598145	0.164648	9.24247	
0.282593	0.167279	9.22503	
0.420532	0.170514	9.20759	
0.27832	0.17002	9.19015	
0.322266	0.170514	9.17271	
0.0231934	0.168433	9.15527	
0.032959	0.166174	9.13783	
0.0408936	0.163757	9.1204	
-0.0653076	0.164014	9.10296	
0.158691	0.165314	9.08552	
-0.0445557	0.165417	9.08552	
-0.020752	0.161279	9.06808	
-0.13916	0.157568	9.06808	
-0.136108	0.155859	9.06808	
-0.155029	0.156317	9.06808	
0.0494385	0.155322	9.06808	
0.0262451	0.155359	9.06808	
-0.2948	0.158063	9.06808	
-0.168457	0.158057	9.06808	
-0.0683594	0.156427	9.06808	
-0.0994873	0.155792	9.06808	
0.120239	0.156152	9.06808	
0.284424	0.157642	9.06808	
0.108032	0.157135	9.06808	
0.119629	0.157941	9.06808	
0.055542	0.156519	9.06808	
0.0256348	0.155084	9.06808	
0.108032	0.15611	9.06808	
0.210571	0.157092	9.06808	
0.245361	0.156696	9.06808	
0.358887	0.158563	9.06808	
0.200195	0.160193	9.06808	
0.305176	0.161737	9.06808	
0.424805	0.164874	9.06808	
0.139771	0.163843	9.06808	
0.258179	0.164014	9.05064	
0.0292969	0.161792	9.0332	
0.0811768	0.159705	9.01576	
-0.125732	0.158466	8.98089	
-0.36438	0.161285	8.96345	
-0.349121	0.16261	8.92857	
-0.0860596	0.162231	8.91113	
-0.316162	0.163965	8.87626	
-0.232544	0.164142	8.85882	
-0.298462	0.166559	8.84138	
-0.317383	0.167902	8.84138	
-0.065918	0.166174	8.82394	
-0.0665283	0.166351	8.82394	
0.0408936	0.164996	8.82394	
0.436401	0.169171	8.82394	
0.361938	0.171063	8.82394	
0.252075	0.171112	8.82394	
0.164185	0.171661	8.82394	
0.137329	0.172949	8.82394	
-0.270996	0.172131	8.82394	
-0.105591	0.170996	8.82394	
-0.00732422	0.170007	8.82394	
-0.147705	0.169806	8.82394	
-0.29541	0.171686	8.82394	
-0.177612	0.172235	8.82394	
0.306396	0.175232	8.82394	
0.679932	0.181195	8.82394	
0.160522	0.182111	8.82394	
0.414429	0.183337	8.82394	
0.0494385	0.181696	8.82394	
-0.0335693	0.180048	8.82394	
-0.386963	0.180054	8.82394	
-0.53894	0.18526	8.82394	
-0.59021	0.188538	8.82394	
-0.710449	0.191943	8.82394	
-0.598755	0.197412	8.82394	
-0.475464	0.201385	8.82394	
-0.27832	0.204077	8.82394	
0.0646973	0.201318	8.82394	
0.249023	0.199164	8.84138	
0.404053	0.199493	8.84138	
0.357666	0.201221	8.84138	
0.252075	0.200592	8.84138	
0.0457764	0.198291	8.84138	
-0.0134277	0.19585	8.85882	
-0.0524902	0.193579	8.85882	
-0.0219727	0.193195	8.85882	
0.0671387	0.192737	8.85882	
-0.0524902	0.192517	8.85882	
0.179443	0.194104	8.85882	
0.234375	0.194446	8.84138	
0.0354004	0.194537	8.84138	
-0.0274658	0.194055	8.84138	
-0.0561523	0.192554	8.84138	
-0.057373	0.191174	8.82394	
-0.179443	0.191589	8.82394	
-0.378418	0.194159	8.82394	
-0.606689	0.198718	8.82394	
-0.480957	0.202075	8.82394	
-0.137939	0.203064	8.82394	
0.0250244	0.202234	8.82394	
-0.286865	0.203619	8.84138	
-0.252686	0.2052	8.84138	
-0.055542	0.204803	8.84138	
-0.150146	0.205298	8.84138	
-0.543823	0.210138	8.85882	
-0.284424	0.210156	8.85882	
-0.149536	0.207446	8.85882	
-0.0958252	0.205621	8.87626	
0.0231934	0.202631	8.87626	
-0.057373	0.202972	8.87626	
0.112305	0.203766	8.89369	
-0.214233	0.205499	8.89369	
-0.167236	0.206519	8.91113	
-0.316772	0.208099	8.91113	
-0.386353	0.211517	8.91113	
-0.52063	0.216516	8.92857	
-0.754395	0.222668	8.92857	
-0.474854	0.226056	8.92857	
-0.158691	0.226093	8.94601	
-0.0842285	0.22644	8.94601	
-0.067749	0.226855	8.96345	
-0.0964355	0.224872	8.96345	
0.113525	0.224323	8.96345	
0.200195	0.225641	8.96345	
-0.0531006	0.225177	8.96345	
-0.0628662	0.224603	8.96345	
0.00854492	0.221844	8.96345	
-0.0817871	0.221582	8.96345	
-0.088501	0.221271	8.96345	
-0.090332	0.221619	8.96345	
0.105591	0.222418	8.94601	
0.120239	0.22254	8.94601	
-0.0695801	0.22113	8.94601	
0.228271	0.220959	8.94601	
0.0610352	0.217981	8.94601	
0.145264	0.217432	8.94601	
0.0775146	0.215155	8.96345	
0.101929	0.211926	8.96345	
-0.19165	0.212445	8.96345	
-0.405273	0.213916	8.96345	
-0.279541	0.216418	8.96345	
-0.285645	0.218463	8.98089	
-0.0952148	0.218158	8.98089	
-0.109253	0.215607	8.98089	
0.0134277	0.21225	8.99833	
-0.114746	0.212537	9.01576	
-0.252075	0.211896	9.01576	
-0.505981	0.21463	9.0332	
-0.0506592	0.212152	9.05064	
0.032959	0.209308	9.06808	
-0.215454	0.210803	9.08552	
-0.369873	0.213837	9.10296	
-0.284424	0.216272	9.13783	
-0.171509	0.213623	9.15527	
-0.177612	0.21178	9.17271	
-0.145264	0.210712	9.19015	
0.0543213	0.209613	9.19015	
-0.115356	0.209393	9.20759	
-0.453491	0.211218	9.22503	
-0.342407	0.213586	9.24247	
-0.228882	0.215802	9.24247	
-0.0506592	0.214832	9.25991	
0.0952148	0.21283	9.25991	
0.210571	0.213159	9.27734	
0.241089	0.212506	9.27734	
0.427246	0.209979	9.27734	
0.19043	0.210278	9.27734	
-0.0640869	0.206775	9.27734	
0.0421143	0.206702	9.27734	
0.24353	0.208801	9.27734	
0.0531006	0.205463	9.27734	
0.127563	0.201349	9.27734	
0.137939	0.196826	9.25991	
0.111694	0.190839	9.25991	
-0.0512695	0.185364	9.25991	
0.250854	0.183118	9.25991	
0.315552	0.18349	9.25991	
0.376587	0.186609	9.25991	
0.305176	0.18717	9.24247	
0.0268555	0.183398	9.24247	
-0.328979	0.183112	9.24247	
-0.0579834	0.181171	9.24247	
-0.167847	0.182391	9.24247	
-0.330811	0.185565	9.24247	
-0.368652	0.188727	9.24247	
-0.496826	0.193475	9.24247	
-0.440063	0.197205	9.25991	
0.0585938	0.197266	9.25991	
0.346069	0.198932	9.27734	
0.374756	0.200336	9.29478	
0.404663	0.204028	9.31222	
0.263062	0.206384	9.3471	
0.228271	0.208105	9.38198	
-0.00854492	0.207617	9.41685	
0.0793457	0.206616	9.45173	
0.212402	0.204956	9.48661	
0.0756836	0.199646	9.52148	
-0.10376	0.195874	9.55636	
-0.147705	0.195972	9.59124	
0.146484	0.197186	9.62612	
-0.170288	0.196021	9.66099	
0.098877	0.194482	9.69587	
-0.0213623	0.194141	9.71331	
-0.270996	0.195349	9.74819	
-0.354614	0.193457	9.78306	
-0.0531006	0.191144	9.81794	
0.160522	0.191254	9.83538	
0.279541	0.193091	9.87026	
0.345459	0.196313	9.90513	
0.454102	0.200281	9.92257	
0.425415	0.203412	9.94001	
0.513306	0.206403	9.95745	
0.739136	0.212122	9.97489	
0.264893	0.211603	9.99233	
0.20752	0.209814	10.0098	
-0.0854492	0.205463	10.0098	
-0.0738525	0.198657	10.0098	
0.0799561	0.194708	10.0272	
0.0213623	0.193335	10.0272	
-0.0628662	0.193121	10.0272	
-0.032959	0.192773	10.0272	
-0.108643	0.192896	10.0098	
0.0769043	0.192529	10.0098	
0.27771	0.193304	10.0098	
0.631104	0.199084	10.0098	
0.740356	0.205859	10.0098	
0.819702	0.213971	9.99233	
0.745239	0.220605	9.99233	
0.622559	0.225946	9.97489	
0.884399	0.233887	9.95745	
0.670776	0.239539	9.94001	
0.305786	0.241394	9.92257	
0.280762	0.243506	9.90513	
0.0378418	0.241602	9.8877	
-0.128174	0.242273	9.87026	
-0.39978	0.244818	9.85282	
-0.114136	0.245184	9.83538	
0.136719	0.245532	9.83538	
0.0408936	0.244025	9.83538	
0.26123	0.242584	9.83538	
0.0579834	0.240369	9.83538	
0.159912	0.239111	9.83538	
0.307007	0.241229	9.85282	
-0.143433	0.241571	9.87026	
-0.134888	0.242786	9.8877	
-0.144653	0.243085	9.90513	
-0.0769043	0.241333	9.94001	
-0.0738525	0.237012	9.97489	
0.0250244	0.236755	10.0098	
-0.303345	0.239459	10.0446	
-0.0445557	0.23775	10.097	
0.134277	0.235394	10.1493	
-0.00610352	0.232611	10.1842	
-0.214233	0.233038	10.2365	
-0.223389	0.233496	10.2888	
-0.308228	0.235126	10.3237	
-0.223999	0.236823	10.3585	
-0.0671387	0.23634	10.3934	
0.00854492	0.231891	10.4109	
0.0378418	0.228845	10.4283	
0.217285	0.228729	10.4457	
0.266724	0.23089	10.4457	
0.316772	0.233105	10.4457	
0.230713	0.233307	10.4457	
0.174561	0.232642	10.4457	
0.336914	0.231738	10.4457	
0.428467	0.234119	10.4457	
0.457153	0.238049	10.4457	
0.614624	0.243774	10.4283	
0.389404	0.245233	10.4283	
0.500488	0.249707	10.4109	
0.480347	0.253235	10.3934	
0.432129	0.256177	10.3585	
-0.0878906	0.255939	10.3411	
-0.17395	0.257166	10.3062	
0.0897217	0.255554	10.2713	
-0.126953	0.253668	10.2539	
-0.0958252	0.250861	10.219	
-0.143433	0.249243	10.1842	
-0.19104	0.250885	10.1667	
-0.15686	0.249164	10.1318	
-0.078125	0.249365	10.1144	
-0.012207	0.247809	10.097	
0.137329	0.245874	10.0621	
0.429077	0.246478	10.0446	
0.479126	0.246301	10.0272	
0.379028	0.245691	10.0098	
0.2948	0.248053	9.99233	
0.310059	0.247693	9.95745	
-0.178833	0.245734	9.94001	
-0.0628662	0.242316	9.92257	
0.0366211	0.240051	9.90513	
-0.252686	0.240295	9.8877	
-0.0970459	0.24118	9.87026	
-0.324707	0.243634	9.85282	
-0.115967	0.24267	9.85282	
-0.293579	0.244849	9.83538	
-0.255127	0.246362	9.83538	
0.112305	0.246008	9.83538	
0.142822	0.245972	9.83538	
-0.0415039	0.244684	9.83538	
-0.0750732	0.244446	9.83538	
-0.119629	0.245428	9.83538	
-0.00732422	0.242792	9.83538	
-0.288696	0.242133	9.81794	
0.065918	0.242261	9.81794	
0.264282	0.243298	9.83538	
0.0390625	0.240894	9.83538	
-0.272217	0.240161	9.83538	
-0.310669	0.238727	9.83538	
-0.273438	0.237207	9.85282	
0.170288	0.233777	9.85282	
0.396118	0.230347	9.87026	
0.258789	0.230286	9.87026	
0.176392	0.229974	9.8877	
0.338135	0.232501	9.8877	
0.348511	0.235248	9.90513	
0.86731	0.243121	9.90513	
0.32959	0.246204	9.90513	
0.492554	0.2505	9.90513	
-0.00671387	0.250238	9.92257	
-0.653076	0.255682	9.92257	
-0.591431	0.260828	9.92257	
-0.256348	0.260614	9.94001	
-0.562744	0.25993	9.95745	
-0.487671	0.257404	9.97489	
-0.492554	0.254132	9.99233	
-0.15625	0.248242	10.0098	
-0.022583	0.242242	10.0446	
0.168457	0.235083	10.0795	
0.239868	0.230774	10.1144	
0.370483	0.231421	10.1493	
0.0445557	0.229059	10.1842	
-0.322266	0.231903	10.219	
-0.305176	0.233673	10.2539	
-0.449219	0.234167	10.2888	
-0.395508	0.236981	10.3237	
-0.452881	0.240143	10.3411	
-0.292969	0.242664	10.376	
-0.0622559	0.240674	10.3934	
0.0238037	0.240332	10.4109	
0.13855	0.240118	10.4283	
0.188599	0.238934	10.4457	
0.265503	0.240155	10.4457	
0.24231	0.241229	10.4457	
0.253906	0.242322	10.4457	
0.256958	0.244122	10.4457	
0.239868	0.245782	10.4283	
0.118408	0.246716	10.4109	
0.387573	0.247559	10.3934	
0.331421	0.250427	10.3585	
0.235596	0.25144	10.3411	
0.430298	0.255682	10.3062	
0.184326	0.255383	10.2539	
0.514526	0.258295	10.219	
0.227661	0.257489	10.1842	
0.307007	0.258319	10.1318	
-0.19104	0.259558	10.097	
-0.134277	0.260815	10.0795	
-0.098877	0.261426	10.0446	
-0.349731	0.26275	10.0272	
-0.488892	0.264972	10.0098	
-0.341797	0.265222	9.99233	
-0.180664	0.264722	9.97489	
-0.106201	0.264038	9.97489	
0.022583	0.260895	9.95745	
0.110474	0.257715	9.95745	
0.147095	0.254614	9.94001	
0.355225	0.25202	9.94001	
0.112915	0.249255	9.92257	
0.369263	0.247943	9.90513	
0.0915527	0.244055	9.90513	
-0.211792	0.241852	9.8877	
0.0585938	0.241559	9.87026	
0.0256348	0.240076	9.87026	
-0.216064	0.241339	9.85282	
-0.352173	0.243591	9.83538	
-0.0726318	0.243359	9.83538	
0.022583	0.242151	9.81794	
-0.0683594	0.240924	9.8005	
-0.233765	0.241693	9.8005	
-0.142212	0.242334	9.78306	
-0.00732422	0.242285	9.76563	
0.10376	0.241949	9.76563	
-0.0201416	0.23786	9.74819	
-0.0646973	0.233716	9.73075	
0.0512695	0.230438	9.73075	
0.150146	0.228992	9.71331	
0.123901	0.22713	9.71331	
0.340576	0.228748	9.69587	
0.409546	0.232214	9.69587	
0.247803	0.234326	9.67843	
0.0201416	0.232001	9.67843	
-0.15564	0.232587	9.66099	
-0.12085	0.230548	9.66099	
0.310059	0.232489	9.64355	
0.3125	0.232678	9.62612	
0.300903	0.233136	9.62612	
0.201416	0.234027	9.60868	
0.0714111	0.233313	9.60868	
0.223999	0.235138	9.59124	
-0.0750732	0.235138	9.59124	
0	0.233942	9.59124	
-0.143433	0.235303	9.5738	
-0.339355	0.235809	9.5738	
-0.53894	0.24054	9.5738	
-0.0634766	0.238531	9.5738	
0.0299072	0.23844	9.5738	
0.179443	0.237512	9.5738	
0.0793457	0.235199	9.5738	
0.0854492	0.233319	9.5738	
-0.146484	0.233081	9.5738	
0.287476	0.231995	9.5738	
-0.148315	0.23089	9.5738	
-0.235596	0.231482	9.5738	
-0.343628	0.231537	9.59124	
-0.291138	0.230963	9.59124	
-0.184937	0.224139	9.59124	
0.088501	0.221729	9.59124	
-0.03479	0.217151	9.59124	
0.0158691	0.217242	9.60868	
0.200195	0.212714	9.60868	
0.302734	0.209827	9.60868	
0.27771	0.21004	9.60868	
0.238037	0.206793	9.60868	
-0.0128174	0.202045	9.60868	
-0.0378418	0.197498	9.60868	
0.463867	0.200574	9.59124	
0.447388	0.204822	9.59124	
0.177002	0.204907	9.59124	
0.214233	0.204651	9.59124	
-0.106201	0.202008	9.59124	
-0.339355	0.204956	9.59124	
-0.0299072	0.202032	9.59124	
-0.0158691	0.199139	9.59124	
-0.209351	0.196741	9.59124	
-0.322266	0.196008	9.59124	
-0.249023	0.19397	9.59124	
-0.177612	0.192816	9.59124	
-0.125122	0.193445	9.59124	
-0.0683594	0.19389	9.59124	
-0.137329	0.193878	9.59124	
0.0366211	0.192358	9.59124	
0.113525	0.190839	9.59124	
0.220947	0.190625	9.59124	
0.333862	0.191425	9.59124	
0.588379	0.194739	9.59124	
0.562744	0.197968	9.59124	
0.57312	0.202515	9.59124	
0.184326	0.200482	9.59124	
0.100708	0.198175	9.59124	
0.215454	0.197974	9.59124	
-0.0109863	0.193781	9.59124	
-0.331421	0.195251	9.59124	
-0.587769	0.195984	9.5738	
-0.766602	0.201373	9.5738	
-0.446777	0.202771	9.5738	
-0.177612	0.202637	9.5738	
-0.0970459	0.202264	9.5738	
0.122681	0.202502	9.5738	
0.220337	0.201208	9.59124	
-0.00488281	0.196368	9.59124	
0.314941	0.1961	9.59124	
0.270386	0.196997	9.59124	
0.0421143	0.196356	9.59124	
0.0976563	0.197107	9.60868	
-0.0933838	0.196936	9.60868	
0.0787354	0.196252	9.60868	
0.549927	0.198199	9.60868	
0.463257	0.201703	9.60868	
0.421143	0.202222	9.59124	
0.289917	0.204205	9.59124	
0.39856	0.206073	9.59124	
-0.0671387	0.206158	9.59124	
-0.158691	0.207489	9.59124	
-0.189819	0.207227	9.59124	
-0.22522	0.205957	9.59124	
-0.616455	0.211395	9.60868	
-0.545044	0.21662	9.60868	
-0.310669	0.219043	9.60868	
-0.20813	0.218787	9.60868	
-0.186157	0.219226	9.60868	
0.180054	0.220953	9.60868	
0.109253	0.221008	9.60868	
-0.0445557	0.221252	9.59124	
0.012207	0.220728	9.59124	
0.032959	0.220544	9.59124	
-0.0311279	0.219354	9.59124	
0.109253	0.219208	9.59124	
0.370483	0.219507	9.59124	
0.368652	0.219098	9.59124	
0.300903	0.219629	9.59124	
0.159912	0.221027	9.5738	
0.256958	0.22204	9.5738	
0.0927734	0.221759	9.5738	
0.235596	0.221014	9.55636	
0.110474	0.218994	9.55636	
-0.41626	0.220148	9.53892	
-0.289307	0.221027	9.53892	
0.166626	0.221979	9.52148	
0.2948	0.222687	9.52148	
0.292358	0.22486	9.50405	
0.387573	0.228735	9.50405	
0.361328	0.230914	9.48661	
0.163574	0.229156	9.48661	
-0.0872803	0.22464	9.48661	
-0.00976563	0.224103	9.46917	
-0.0720215	0.224524	9.46917	
-0.332642	0.226056	9.46917	
-0.41748	0.229437	9.46917	
-0.354004	0.232123	9.46917	
-0.27832	0.233441	9.46917	
-0.0610352	0.231177	9.46917	
0.0012207	0.229706	9.48661	
-0.108643	0.228436	9.48661	
-0.0439453	0.225439	9.48661	
0.152588	0.224054	9.48661	
0.0872803	0.223077	9.48661	
0.0592041	0.222784	9.48661	
0.165405	0.224091	9.48661	
0.170288	0.225635	9.50405	
0.24353	0.226068	9.50405	
0.357666	0.226617	9.50405	
-0.065918	0.2245	9.50405	
-0.123901	0.223358	9.52148	
0.262451	0.225854	9.52148	
0.339355	0.22887	9.52148	
-0.169678	0.225928	9.53892	
-0.179443	0.223248	9.53892	
-0.0231934	0.22171	9.53892	
-0.198975	0.221558	9.53892	
-0.120239	0.221698	9.55636	
0.0964355	0.219269	9.55636	
-0.0299072	0.219269	9.55636	
-0.113525	0.220245	9.5738	
-0.198975	0.220142	9.5738	
-0.388794	0.220807	9.59124	
0.0592041	0.218909	9.59124	
0.032959	0.217462	9.59124	
0.192871	0.21814	9.60868	
0.244141	0.219897	9.60868	
0.130005	0.219824	9.62612	
0.0219727	0.219678	9.62612	
-0.0500488	0.219043	9.62612	
0.130615	0.21814	9.62612	
0.131226	0.216113	9.62612	
0.270996	0.212939	9.62612	
0.194092	0.209253	9.62612	
0.284424	0.206366	9.60868	
0.556641	0.210089	9.60868	
0.506592	0.214148	9.59124	
0.493164	0.216925	9.59124	
0.109863	0.217914	9.5738	
-0.10376	0.215637	9.55636	
-0.150146	0.211261	9.53892	
-0.259399	0.206189	9.52148	
-0.465698	0.206378	9.50405	
-0.293579	0.207538	9.48661	
-0.296021	0.209528	9.46917	
-0.206299	0.210364	9.46917	
-0.00549316	0.208215	9.46917	
-0.0714111	0.208881	9.45173	
0.0787354	0.206519	9.45173	
0.0195313	0.20401	9.45173	
0.106812	0.204657	9.45173	
0.455933	0.20824	9.45173	
0.273438	0.21004	9.45173	
0.117188	0.210425	9.45173	
-0.0311279	0.205237	9.45173	
0.195313	0.202557	9.45173	
0.105591	0.199402	9.45173	
0.03479	0.196851	9.45173	
-0.237427	0.195239	9.45173	
-0.3479	0.198047	9.45173	
-0.195923	0.198419	9.45173	
-0.272827	0.199249	9.45173	
0.0152588	0.19715	9.46917	
-0.0946045	0.191931	9.46917	
-0.0805664	0.187286	9.46917	
0.03479	0.184528	9.46917	
0.293579	0.185382	9.46917	
0.270386	0.186224	9.46917	
0.151367	0.185937	9.46917	
0.0158691	0.185004	9.46917	
0.180664	0.186365	9.46917	
0.0506592	0.186749	9.46917	
0.106201	0.187482	9.46917	
0.149536	0.188666	9.46917	
-0.0256348	0.18783	9.46917	
-0.0292969	0.184418	9.46917	
-0.278931	0.183521	9.45173	
-0.123291	0.181744	9.45173	
-0.220337	0.182349	9.45173	
-0.250244	0.182281	9.43429	
-0.0360107	0.181714	9.43429	
0.182495	0.181183	9.41685	
0.241089	0.182489	9.41685	
0.184326	0.18017	9.39941	
0.249023	0.179767	9.39941	
0.000610352	0.178107	9.38198	
-0.180664	0.176965	9.36454	
-0.0421143	0.174463	9.36454	
-0.00549316	0.170642	9.3471	
-0.090332	0.167932	9.3471	
-0.0158691	0.166455	9.32966	
0.0720215	0.166302	9.31222	
-0.00427246	0.166248	9.31222	
0.151978	0.167047	9.29478	
0.124512	0.164966	9.27734	
0.0671387	0.161462	9.25991	
0.177002	0.159692	9.25991	
-0.252075	0.15943	9.24247	
-0.283813	0.161658	9.22503	
-0.29541	0.1646	9.22503	
-0.0799561	0.164313	9.20759	
0.00183105	0.163892	9.20759	
-0.00915527	0.162457	9.19015	
0.141602	0.163	9.17271	
0.289307	0.165302	9.17271	
0.288086	0.166528	9.15527	
0.250244	0.167328	9.13783	
0.147095	0.166364	9.13783	
-0.0341797	0.163129	9.1204	
0.128784	0.163757	9.08552	
0.0683594	0.163202	9.06808	
0.0244141	0.160822	9.0332	
0.0195313	0.157623	8.99833	
-0.0976563	0.156903	8.96345	
0.136719	0.156476	8.92857	
0.164185	0.157886	8.87626	
0.090332	0.156799	8.84138	
-0.0134277	0.155731	8.78906	
0.0012207	0.154779	8.73675	
0.0177002	0.154657	8.68443	
0.0598145	0.15412	8.61468	
-0.045166	0.152582	8.54492	
-0.0915527	0.149609	8.47517	
0.0457764	0.149475	8.38797	
0.00183105	0.149164	8.28334	
0.140381	0.148639	8.17871	
0.158691	0.147784	8.05664	
-0.0384521	0.146869	7.91713	
-0.143433	0.148083	7.77762	
-0.098877	0.148572	7.63811	
-0.194702	0.149213	7.48117	
-0.10498	0.14895	7.34166	
-0.17334	0.147974	7.18471	
-0.143433	0.147467	7.06264	
0.00366211	0.144659	6.92313	
0.151978	0.140613	6.80106	
-0.0500488	0.136047	6.67899	
0.236206	0.133478	6.57436	
0.313721	0.135516	6.46973	
0.192871	0.136407	6.34766	
0.205688	0.136963	6.24302	
0.0616455	0.134985	6.13839	
0.0177002	0.130505	6.03376	
0.100708	0.128577	5.91169	
