casm2-L02
Graph Created on: 2024-07-22 12:46:48.718
Recording on: 2024-07-22 12:48:14.176
2 msec/sample
3 channels
EMG
mV
Integrated EMG (est.)
mV-sec
Clench Force
kg
CH1	CH40	CH41	
61007 samples	61007 samples	61007 samples	
0.0305176	0.000305176	3.88578E-16	
0.010376	0.000408936	3.88578E-16	
0.0183105	0.000592041	3.88578E-16	
-0.0274658	0.000866699	3.88578E-16	
0.010376	0.000970459	3.88578E-16	
0.0311279	0.00128174	3.88578E-16	
0.0170898	0.00145264	3.88578E-16	
-0.022583	0.00167847	3.88578E-16	
0.022583	0.0019043	3.88578E-16	
0.0421143	0.00232544	3.88578E-16	
0.0286865	0.0026123	3.88578E-16	
0.0134277	0.00274658	0.0174386	
-0.010376	0.00285034	0.0174386	
0.0189209	0.00303955	0.0174386	
0.055542	0.00359497	0.0174386	
-0.0280762	0.00387573	0.0174386	
0	0.00387573	0.0174386	
0.0341797	0.00421753	0.0174386	
0.0109863	0.00432739	3.88578E-16	
0.00366211	0.00436401	3.88578E-16	
-0.020752	0.00457153	3.88578E-16	
0.0219727	0.00479126	3.88578E-16	
0.0531006	0.00532227	3.88578E-16	
0.00488281	0.00537109	3.88578E-16	
-0.0012207	0.0053833	3.88578E-16	
-0.000610352	0.0053894	3.88578E-16	
0.0152588	0.00554199	3.88578E-16	
0.0286865	0.00582886	3.88578E-16	
-0.022583	0.00605469	3.88578E-16	
-0.00732422	0.00612793	3.88578E-16	
0.022583	0.00635376	3.88578E-16	
0.0238037	0.0065918	3.88578E-16	
-0.03479	0.0069397	3.88578E-16	
0.0140381	0.00708008	3.88578E-16	
0.0299072	0.00737915	3.88578E-16	
0.000610352	0.00738525	3.88578E-16	
0.0183105	0.00756836	3.88578E-16	
-0.00671387	0.0076355	3.88578E-16	
0.00305176	0.00766602	3.88578E-16	
0.0396729	0.00806274	3.88578E-16	
-0.0189209	0.00825195	3.88578E-16	
0.00488281	0.00830078	3.88578E-16	
0.0189209	0.00848999	3.88578E-16	
0.00183105	0.0085083	3.88578E-16	
0.0415039	0.00892334	3.88578E-16	
-0.0231934	0.00915527	3.88578E-16	
0.0250244	0.00940552	3.88578E-16	
0.043335	0.00983887	3.88578E-16	
0.022583	0.0100647	3.88578E-16	
-0.0158691	0.0102234	3.88578E-16	
0.0219727	0.0104431	3.88578E-16	
0.00732422	0.0105164	3.88578E-16	
0.010376	0.0106201	3.88578E-16	
0.00244141	0.0106445	3.88578E-16	
-0.0183105	0.0108276	3.88578E-16	
0.0158691	0.0109863	3.88578E-16	
0.0311279	0.0112976	3.88578E-16	
-0.0134277	0.0114319	3.88578E-16	
-0.00671387	0.011499	3.88578E-16	
0.0152588	0.0116516	3.88578E-16	
0.0238037	0.0118896	3.88578E-16	
0.0299072	0.0121887	3.88578E-16	
-0.0219727	0.0124084	3.88578E-16	
-0.00671387	0.0124756	3.88578E-16	
0.0408936	0.0128845	3.88578E-16	
-0.0195313	0.0130798	3.88578E-16	
0.00183105	0.0130981	3.88578E-16	
0.0274658	0.0133728	3.88578E-16	
0.0115967	0.0134888	3.88578E-16	
0.0384521	0.0138733	3.88578E-16	
-0.00183105	0.0138916	3.88578E-16	
0.0201416	0.014093	3.88578E-16	
0.0537109	0.0146301	0	
0.0378418	0.0150085	0	
0.00793457	0.0150879	0	
0.0152588	0.0152405	0	
0.0280762	0.0155212	0	
0.0311279	0.0158325	0	
0.00427246	0.0158752	3.88578E-16	
0.00366211	0.0159119	3.88578E-16	
0.00183105	0.0159302	3.88578E-16	
0.0292969	0.0162231	3.88578E-16	
-0.020752	0.0164307	3.88578E-16	
0.0195313	0.016626	3.88578E-16	
0.0201416	0.0168274	3.88578E-16	
-0.00610352	0.0168884	3.88578E-16	
0.00610352	0.0169495	0.0174386	
-0.010376	0.0170532	0.0174386	
0.00244141	0.0170776	0.0174386	
0.0482178	0.0175598	0.0174386	
-0.0140381	0.0177002	3.88578E-16	
-0.0109863	0.0178101	3.88578E-16	
0.0280762	0.0180908	3.88578E-16	
0.00671387	0.018158	3.88578E-16	
0.0360107	0.0185181	3.88578E-16	
-0.0146484	0.0186646	3.88578E-16	
0.0128174	0.0187927	3.88578E-16	
0.0482178	0.0192749	3.88578E-16	
0.0195313	0.0194702	3.88578E-16	
-0.000610352	0.0194763	3.88578E-16	
0.00488281	0.01922	3.88578E-16	
0.00976563	0.0192139	3.88578E-16	
0.022583	0.0192566	3.88578E-16	
-0.00671387	0.0190491	3.88578E-16	
-0.010376	0.0190491	3.88578E-16	
0.000610352	0.0187439	3.88578E-16	
0.0305176	0.0188782	3.88578E-16	
-0.0244141	0.0188965	3.88578E-16	
0.0390625	0.0190613	3.88578E-16	
0.0115967	0.0187561	3.88578E-16	
0.00183105	0.0184875	3.88578E-16	
0.0213623	0.0185669	3.88578E-16	
-0.00549316	0.0185181	3.88578E-16	
0.00854492	0.0184143	3.88578E-16	
0.0463867	0.0183228	3.88578E-16	
0	0.018042	3.88578E-16	
-0.00915527	0.0181335	3.88578E-16	
0.0189209	0.017981	3.88578E-16	
-0.00793457	0.0179504	3.88578E-16	
0.03479	0.0182617	3.88578E-16	
-0.0195313	0.0182495	3.88578E-16	
0.00671387	0.0180969	3.88578E-16	
0.0219727	0.0177856	3.88578E-16	
0.00244141	0.0177612	3.88578E-16	
-0.0140381	0.0178894	3.88578E-16	
0.0164795	0.0180481	3.88578E-16	
0.00793457	0.0179749	3.88578E-16	
0.00976563	0.0177856	3.88578E-16	
0.00366211	0.0175964	3.88578E-16	
-0.00183105	0.0175415	0	
0.0274658	0.0175903	0	
0.0274658	0.017627	0	
-0.020752	0.0174866	0	
0.0170898	0.0175171	0	
0.022583	0.0174438	0	
0.0140381	0.0175781	0	
0.020752	0.0176025	0	
-0.0115967	0.0176514	3.88578E-16	
0.00488281	0.0176697	3.88578E-16	
0.0561523	0.0178345	3.88578E-16	
0.0201416	0.0178467	3.88578E-16	
-0.00915527	0.0178894	3.88578E-16	
0.0250244	0.0179504	3.88578E-16	
-0.00671387	0.0179993	3.88578E-16	
0.0317383	0.0179016	0.0174386	
-0.0109863	0.0177795	0.0174386	
0	0.0175293	0.0174386	
0.0280762	0.0173767	0.0174386	
0.00671387	0.017218	3.88578E-16	
-0.0335693	0.017395	3.88578E-16	
0.0189209	0.0173645	3.88578E-16	
0.0189209	0.0174805	3.88578E-16	
0.00793457	0.0174561	3.88578E-16	
0.00854492	0.0175171	3.88578E-16	
0.0012207	0.0173462	3.88578E-16	
0.0146484	0.017334	3.88578E-16	
0.0335693	0.0173584	3.88578E-16	
-0.0292969	0.0175171	3.88578E-16	
0.0134277	0.0175842	3.88578E-16	
0.0128174	0.0175598	3.88578E-16	
0.0109863	0.0174316	3.88578E-16	
-0.00183105	0.0171509	3.88578E-16	
-0.0256348	0.0171875	3.88578E-16	
0.0146484	0.0172668	3.88578E-16	
0.022583	0.0170837	3.88578E-16	
-0.00976563	0.0169861	3.88578E-16	
-0.00915527	0.0170593	3.88578E-16	
0.0109863	0.0168945	3.88578E-16	
0.0183105	0.0169617	3.88578E-16	
0.020752	0.0167847	3.88578E-16	
-0.0305176	0.0170715	3.88578E-16	
0.0109863	0.01698	3.88578E-16	
0.0335693	0.0167786	3.88578E-16	
0.0280762	0.0166809	0.0174386	
-0.0280762	0.0168823	0.0174386	
0.0140381	0.0168701	0.0174386	
0.0262451	0.0168518	0.0174386	
0.0146484	0.016687	0.0174386	
-0.00793457	0.0167236	3.88578E-16	
-0.00366211	0.0167236	3.88578E-16	
0.0372314	0.0170776	3.88578E-16	
0.0378418	0.0171631	3.88578E-16	
-0.0390625	0.0173462	3.88578E-16	
0.00732422	0.0172241	3.88578E-16	
0.032959	0.0173523	3.88578E-16	
0.0164795	0.0174561	3.88578E-16	
0.020752	0.0176025	3.88578E-16	
-0.0170898	0.0176697	3.88578E-16	
0.010376	0.017749	3.88578E-16	
0.0494385	0.0177612	3.88578E-16	
-0.0146484	0.0177673	3.88578E-16	
0.0219727	0.0178772	3.88578E-16	
0.0366211	0.0179626	3.88578E-16	
0.0341797	0.0182373	3.88578E-16	
0.045166	0.0183289	3.88578E-16	
-0.010376	0.0182861	3.88578E-16	
0.00549316	0.0182129	3.88578E-16	
0.0195313	0.017926	3.88578E-16	
0.00305176	0.0177612	3.88578E-16	
-0.0115967	0.0178711	3.88578E-16	
-0.00671387	0.0178894	3.88578E-16	
-0.0189209	0.017981	3.88578E-16	
-0.0109863	0.017865	3.88578E-16	
-0.00549316	0.0178528	0.0174386	
-0.00671387	0.0178162	0.0174386	
0.00610352	0.0178711	0.0174386	
0.0323486	0.0178894	0.0174386	
-0.0311279	0.0179565	0.0174386	
0.0128174	0.0176941	0.0174386	
0.0335693	0.0179138	0.0174386	
-0.00366211	0.0179321	3.88578E-16	
0.020752	0.017926	3.88578E-16	
-0.0115967	0.0179871	3.88578E-16	
0.00671387	0.0179688	3.88578E-16	
0.0494385	0.0179993	3.88578E-16	
0.00305176	0.0180298	3.88578E-16	
0.00244141	0.0179626	3.88578E-16	
0.0201416	0.0179749	3.88578E-16	
0.0170898	0.0180664	3.88578E-16	
0.0274658	0.0179932	3.88578E-16	
-0.00671387	0.017865	3.88578E-16	
-0.00915527	0.0178894	3.88578E-16	
0.03479	0.0180176	3.88578E-16	
0.0378418	0.0183716	3.88578E-16	
-0.0189209	0.0184204	3.88578E-16	
0.0274658	0.0185303	3.88578E-16	
0.0146484	0.0185974	3.88578E-16	
0.0134277	0.018634	3.88578E-16	
0.0213623	0.018811	3.88578E-16	
0.00488281	0.0188416	3.88578E-16	
0.0213623	0.0187805	3.88578E-16	
0.0250244	0.0187561	3.88578E-16	
-0.020752	0.0187561	3.88578E-16	
0.00732422	0.0186584	3.88578E-16	
0.0341797	0.0187744	3.88578E-16	
0.00671387	0.0187012	3.88578E-16	
0.0183105	0.0186768	3.88578E-16	
-0.00915527	0.0186523	3.88578E-16	
0.00793457	0.0186829	3.88578E-16	
0.0537109	0.0186584	3.88578E-16	
0.00732422	0.0185303	3.88578E-16	
-0.0317383	0.0187561	3.88578E-16	
0.0268555	0.0187744	3.88578E-16	
0.00793457	0.0187866	3.88578E-16	
0.0256348	0.0187256	3.88578E-16	
-0.0360107	0.0189758	3.88578E-16	
0.00366211	0.0190125	3.88578E-16	
0.0311279	0.019043	3.88578E-16	
0.0457764	0.0194336	3.88578E-16	
-0.0646973	0.0197449	3.88578E-16	
0.0292969	0.0198486	3.88578E-16	
0.0341797	0.0200012	3.88578E-16	
0.00976563	0.0200195	3.88578E-16	
0.00671387	0.0200012	3.88578E-16	
-0.00854492	0.0200745	3.88578E-16	
0.000610352	0.0199341	3.88578E-16	
0.0421143	0.0200195	3.88578E-16	
-0.022583	0.0199524	3.88578E-16	
-0.00610352	0.0198792	3.88578E-16	
0.0134277	0.0198853	3.88578E-16	
-0.00305176	0.0198059	3.88578E-16	
0.0268555	0.0200562	3.88578E-16	
-0.00915527	0.0198914	3.88578E-16	
0.00610352	0.0198059	3.88578E-16	
0.0415039	0.0199951	3.88578E-16	
0.0146484	0.0200439	3.88578E-16	
0.00305176	0.0199829	3.88578E-16	
0.0268555	0.0201416	3.88578E-16	
0.0140381	0.0200989	3.88578E-16	
0.0152588	0.0200439	3.88578E-16	
-0.0390625	0.0201294	3.88578E-16	
0.00427246	0.0200623	3.88578E-16	
0.0170898	0.0198975	3.88578E-16	
0.0231934	0.0198486	3.88578E-16	
-0.0622559	0.0201904	3.88578E-16	
0.0134277	0.0201843	3.88578E-16	
0.0231934	0.0201538	3.88578E-16	
0.0134277	0.0201416	3.88578E-16	
-0.00732422	0.0201355	3.88578E-16	
0.00915527	0.0201904	3.88578E-16	
0.0372314	0.0201904	3.88578E-16	
0.0445557	0.0202576	3.88578E-16	
-0.00854492	0.0199524	3.88578E-16	
-0.0164795	0.0200439	3.88578E-16	
0.0402832	0.0201172	3.88578E-16	
0.0244141	0.0201965	3.88578E-16	
0.0390625	0.0203796	3.88578E-16	
0	0.0202087	3.88578E-16	
0	0.020105	3.88578E-16	
0.0402832	0.0200134	3.88578E-16	
0.0152588	0.0200195	3.88578E-16	
0.000610352	0.0198059	3.88578E-16	
0.0488281	0.019928	3.88578E-16	
-0.0134277	0.0197205	3.88578E-16	
0.0177002	0.0194458	3.88578E-16	
-0.0280762	0.0196228	3.88578E-16	
0.000610352	0.019574	3.88578E-16	
0.043335	0.019812	3.88578E-16	
0.0262451	0.0200439	3.88578E-16	
-0.0537109	0.0204651	3.88578E-16	
0.0152588	0.0205505	3.88578E-16	
0.0415039	0.0207764	3.88578E-16	
0.0183105	0.0208496	3.88578E-16	
0.0323486	0.0211182	3.88578E-16	
-0.0402832	0.0214539	3.88578E-16	
0.0244141	0.021637	3.88578E-16	
0.0274658	0.0215881	3.88578E-16	
-0.0115967	0.0213928	3.88578E-16	
0.00427246	0.0213074	3.88578E-16	
0.0012207	0.0209839	3.88578E-16	
-0.0164795	0.0211121	3.88578E-16	
0.0323486	0.021228	3.88578E-16	
-0.0146484	0.0212585	3.88578E-16	
0.0274658	0.0214661	3.88578E-16	
0.0427246	0.0213989	3.88578E-16	
0.00671387	0.0214355	0	
-0.0140381	0.0215515	0	
0.0439453	0.0217896	0	
0.00305176	0.0216492	3.88578E-16	
0.0189209	0.0215637	3.88578E-16	
-0.0195313	0.0216919	3.88578E-16	
0.00976563	0.021698	3.88578E-16	
0.022583	0.0215759	3.88578E-16	
0.010376	0.0213013	3.88578E-16	
-0.0244141	0.0213562	3.88578E-16	
0.0354004	0.0214355	3.88578E-16	
0.0128174	0.0214172	3.88578E-16	
0.0109863	0.0213928	3.88578E-16	
0.0469971	0.0216492	0	
-0.0177002	0.0217773	0	
0.00305176	0.0215942	0	
0.0256348	0.0216003	3.88578E-16	
0.0219727	0.0216125	3.88578E-16	
-0.0012207	0.0215515	3.88578E-16	
0.0256348	0.0214661	3.88578E-16	
0.0012207	0.0214111	3.88578E-16	
0.00366211	0.0212646	3.88578E-16	
-0.00671387	0.0212402	3.88578E-16	
0.0140381	0.0213013	3.88578E-16	
0.010376	0.0208679	3.88578E-16	
0.0256348	0.021051	3.88578E-16	
0	0.0207336	3.88578E-16	
0.0109863	0.020575	3.88578E-16	
0.0201416	0.020697	3.88578E-16	
0.000610352	0.0204468	3.88578E-16	
0.0238037	0.0203247	3.88578E-16	
0.0317383	0.0206055	3.88578E-16	
-0.00610352	0.0203552	3.88578E-16	
0.0396729	0.0202942	3.88578E-16	
-0.0238037	0.0198853	3.88578E-16	
0.0158691	0.019751	3.88578E-16	
0.0671387	0.0200806	3.88578E-16	
-0.0482178	0.0204651	3.88578E-16	
0.00427246	0.0204407	3.88578E-16	
0	0.0203552	3.88578E-16	
0.0115967	0.0204651	3.88578E-16	
0.0280762	0.0203247	3.88578E-16	
-0.0201416	0.0203003	3.88578E-16	
-0.0140381	0.0203796	3.88578E-16	
0.00366211	0.020282	3.88578E-16	
-0.020752	0.020459	3.88578E-16	
0.0524902	0.0207153	3.88578E-16	
-0.0238037	0.0208618	3.88578E-16	
-0.045166	0.0212524	3.88578E-16	
0.0756836	0.0215942	3.88578E-16	
0.0335693	0.0217834	3.88578E-16	
0.0164795	0.0219177	3.88578E-16	
0.0134277	0.0217834	3.88578E-16	
-0.0109863	0.0217529	3.88578E-16	
0.0622559	0.0222229	3.88578E-16	
-0.00854492	0.0219177	3.88578E-16	
-0.0115967	0.021991	3.88578E-16	
0.0177002	0.0219971	3.88578E-16	
0.0341797	0.0221069	3.88578E-16	
-0.0415039	0.0218994	3.88578E-16	
0.00671387	0.0218323	3.88578E-16	
0.0415039	0.0220154	3.88578E-16	
-0.0183105	0.0220642	3.88578E-16	
0.0537109	0.0225281	3.88578E-16	
-0.00183105	0.0224548	3.88578E-16	
-0.00671387	0.0221497	3.88578E-16	
0.0531006	0.0222351	3.88578E-16	
-0.00610352	0.0222107	3.88578E-16	
-0.0231934	0.0222778	0	
0.0354004	0.022229	0	
0.0170898	0.0221558	0	
0.0335693	0.0221008	0	
-0.0244141	0.022345	0	
0.0128174	0.0224731	0	
0.0518799	0.0225891	0	
-0.010376	0.0225403	3.88578E-16	
0.00671387	0.0226013	3.88578E-16	
0.0292969	0.022406	3.88578E-16	
0	0.0222717	3.88578E-16	
0.0134277	0.022229	3.88578E-16	
-0.00244141	0.0219727	3.88578E-16	
0.00183105	0.0219849	0	
0.00488281	0.0216003	0	
0.0158691	0.0214966	0	
-0.0305176	0.0212646	0	
0.0262451	0.0213745	0	
-0.010376	0.0210632	3.88578E-16	
-0.00610352	0.0209412	3.88578E-16	
0.03479	0.0209656	3.88578E-16	
-0.0256348	0.0208191	3.88578E-16	
0.0164795	0.0207397	3.88578E-16	
0.0366211	0.0208313	3.88578E-16	
-0.0201416	0.0209167	3.88578E-16	
-0.00793457	0.0209534	3.88578E-16	
0.012207	0.0210632	3.88578E-16	
0.00366211	0.0209351	3.88578E-16	
0.0396729	0.0210083	0	
-0.0213623	0.0210754	0	
0.0115967	0.0209167	0	
0.0396729	0.0208862	0	
0.0238037	0.0210571	0	
0.00305176	0.0209473	0	
0.00549316	0.0205627	0	
0.0408936	0.0209412	0	
0.00976563	0.0208496	3.88578E-16	
-0.0152588	0.0208069	3.88578E-16	
-0.012207	0.0208313	3.88578E-16	
0.0256348	0.0208618	3.88578E-16	
0.0238037	0.0209961	3.88578E-16	
0.00366211	0.0207886	3.88578E-16	
0.0299072	0.0207336	3.88578E-16	
0.0238037	0.0208435	3.88578E-16	
0.00671387	0.0208008	3.88578E-16	
0.0537109	0.0208679	0	
-0.0268555	0.0209595	0	
0.00732422	0.0210022	0	
0.0579834	0.0213257	0	
-0.00427246	0.0211487	3.88578E-16	
-0.0561523	0.021698	3.88578E-16	
0.0152588	0.0215942	3.88578E-16	
0.0134277	0.0217163	3.88578E-16	
0.0549316	0.022229	3.88578E-16	
-0.0396729	0.0225586	3.88578E-16	
0	0.0224182	3.88578E-16	
0.0482178	0.0227966	3.88578E-16	
0.0415039	0.0229553	3.88578E-16	
-0.00610352	0.0230164	3.88578E-16	
0.0341797	0.0232483	3.88578E-16	
0.0189209	0.0232361	3.88578E-16	
0.00183105	0.0232483	3.88578E-16	
-0.00183105	0.0230286	3.88578E-16	
0.00610352	0.0227722	3.88578E-16	
0.0445557	0.0231567	3.88578E-16	
0.0201416	0.0229614	3.88578E-16	
-0.0817871	0.0235413	3.88578E-16	
0.0335693	0.0237183	0	
0.0231934	0.0232788	0	
-0.00976563	0.0228943	0	
0.0445557	0.0232971	0	
-0.00854492	0.0233826	0	
-0.032959	0.0235962	0	
0.0415039	0.0237305	3.88578E-16	
0.0128174	0.0236572	3.88578E-16	
-0.000610352	0.0235229	3.88578E-16	
0.0152588	0.0236389	3.88578E-16	
-0.00915527	0.0235229	3.88578E-16	
0.0366211	0.0233643	3.88578E-16	
-0.00976563	0.0232239	3.88578E-16	
-0.00549316	0.0228271	3.88578E-16	
0.0213623	0.0222839	3.88578E-16	
0.045166	0.0223999	3.88578E-16	
-0.032959	0.0225647	3.88578E-16	
0.0415039	0.0228455	3.88578E-16	
0.0213623	0.0229492	3.88578E-16	
-0.00915527	0.0224182	3.88578E-16	
-0.0152588	0.0224854	3.88578E-16	
0.0146484	0.0225159	3.88578E-16	
0	0.0223389	3.88578E-16	
0.010376	0.0221008	0	
-0.045166	0.0221375	0	
0.00915527	0.0221619	0	
0.0494385	0.0222412	0	
-0.000610352	0.0220642	0	
-0.0012207	0.0215393	0	
0.00671387	0.0215881	3.88578E-16	
0.0280762	0.0218018	3.88578E-16	
0.0341797	0.0216125	3.88578E-16	
0.010376	0.0216553	3.88578E-16	
0.00305176	0.0214539	3.88578E-16	
-0.0152588	0.0212524	3.88578E-16	
0.00549316	0.0211365	3.88578E-16	
0.0396729	0.0211975	3.88578E-16	
-0.0128174	0.0210815	3.88578E-16	
-0.00793457	0.0210327	3.88578E-16	
0.00610352	0.020575	3.88578E-16	
0.0317383	0.0207886	0	
-0.0299072	0.0210205	0	
0.0177002	0.0209045	0	
0.020752	0.0211121	3.88578E-16	
0.0146484	0.0211243	3.88578E-16	
0.00427246	0.0211426	3.88578E-16	
-0.0115967	0.0212402	3.88578E-16	
0.0231934	0.0214233	3.88578E-16	
0.0378418	0.0216431	3.88578E-16	
-0.0152588	0.0214905	3.88578E-16	
0.00305176	0.0212585	3.88578E-16	
0.0244141	0.0213989	3.88578E-16	
0.0341797	0.0216797	3.88578E-16	
0.00976563	0.0214294	3.88578E-16	
-0.0177002	0.0213501	3.88578E-16	
0.0158691	0.021344	3.88578E-16	
0.0817871	0.0217957	3.88578E-16	
-0.00305176	0.0216248	3.88578E-16	
-0.0115967	0.0216614	3.88578E-16	
0.0488281	0.0220276	3.88578E-16	
-0.0317383	0.0223083	3.88578E-16	
0.03479	0.0222595	3.88578E-16	
-0.012207	0.022168	3.88578E-16	
-0.0244141	0.0222961	3.88578E-16	
0.0195313	0.0220947	3.88578E-16	
0.0250244	0.0221069	3.88578E-16	
-0.00183105	0.0220947	3.88578E-16	
0.0146484	0.0221863	3.88578E-16	
0.00366211	0.021814	3.88578E-16	
0.0488281	0.0222046	3.88578E-16	
0.010376	0.0221558	3.88578E-16	
-0.00427246	0.0220764	0	
0.00732422	0.0218933	0	
0.0561523	0.0222168	3.88578E-16	
-0.0463867	0.022644	3.88578E-16	
-0.0158691	0.0225037	3.88578E-16	
0.0286865	0.0225525	3.88578E-16	
0.0128174	0.0226135	3.88578E-16	
0.0140381	0.0222168	3.88578E-16	
-0.022583	0.0221741	3.88578E-16	
-0.00793457	0.0221802	3.88578E-16	
0.0634766	0.0222351	3.88578E-16	
0.0012207	0.0222046	3.88578E-16	
-0.00610352	0.0217041	3.88578E-16	
0.0158691	0.0217102	3.88578E-16	
-0.00183105	0.0215942	3.88578E-16	
0.0378418	0.0214233	3.88578E-16	
-0.0140381	0.021167	3.88578E-16	
-0.012207	0.0212891	3.88578E-16	
0.0170898	0.0209778	3.88578E-16	
0.0305176	0.0208679	3.88578E-16	
-0.0274658	0.0210815	3.88578E-16	
0.0152588	0.0208923	3.88578E-16	
0.00854492	0.0207886	3.88578E-16	
0.020752	0.0209778	3.88578E-16	
0.0238037	0.0211975	3.88578E-16	
-0.00976563	0.0212341	3.88578E-16	
-0.00610352	0.0208496	3.88578E-16	
0.0408936	0.0210571	3.88578E-16	
-0.00427246	0.020282	3.88578E-16	
0.00427246	0.019989	3.88578E-16	
0.0396729	0.0201538	3.88578E-16	
-0.00915527	0.0201477	3.88578E-16	
0.0567627	0.0202698	3.88578E-16	
0.0012207	0.0201965	3.88578E-16	
0.00671387	0.0199341	3.88578E-16	
0.0366211	0.0198853	3.88578E-16	
0.0219727	0.0199768	3.88578E-16	
0.00854492	0.0200562	3.88578E-16	
0	0.0199036	3.88578E-16	
0.012207	0.0199341	3.88578E-16	
-0.00915527	0.0196594	3.88578E-16	
-0.0170898	0.0197327	3.88578E-16	
-0.00366211	0.0197144	3.88578E-16	
0.0201416	0.0197021	3.88578E-16	
0.0244141	0.0194946	0	
-0.00427246	0.0192078	0	
0.0158691	0.0189514	0	
0.0378418	0.0191162	0	
0.0213623	0.0192383	0	
-0.00488281	0.0191345	0	
-0.0158691	0.0191467	0	
0.0592041	0.0197388	0	
0.0140381	0.0197754	0	
-0.055542	0.0198792	0	
-0.0189209	0.0199768	0	
0.0360107	0.0198425	0	
0	0.0198364	0	
0.0372314	0.0201965	0	
0.0115967	0.0202454	0	
-0.0286865	0.0202515	0	
0.0457764	0.0203674	0	
0.0183105	0.0204468	0	
0.00732422	0.0204895	3.88578E-16	
0.0213623	0.0205505	3.88578E-16	
-0.00366211	0.0205322	3.88578E-16	
0.0140381	0.0202759	3.88578E-16	
-0.0170898	0.0203186	3.88578E-16	
0.012207	0.0203613	3.88578E-16	
0.0177002	0.0204773	3.88578E-16	
0.0170898	0.0203308	3.88578E-16	
-0.0128174	0.0201599	3.88578E-16	
0.0305176	0.0202881	3.88578E-16	
0.00854492	0.020166	3.88578E-16	
0.00671387	0.0200867	3.88578E-16	
0.0128174	0.0201721	3.88578E-16	
-0.0170898	0.0202271	3.88578E-16	
0.0268555	0.0202637	3.88578E-16	
0.0335693	0.0202209	3.88578E-16	
-0.0256348	0.0203247	3.88578E-16	
-0.0134277	0.0204285	3.88578E-16	
0.0543213	0.0207275	3.88578E-16	
-0.0134277	0.02052	3.88578E-16	
0.010376	0.0205261	3.88578E-16	
0.0244141	0.0205933	3.88578E-16	
0.0256348	0.0206909	3.88578E-16	
0.0195313	0.0200684	3.88578E-16	
0.0164795	0.0202026	3.88578E-16	
0.00915527	0.0201782	3.88578E-16	
0.0231934	0.0199219	3.88578E-16	
0.0158691	0.0197632	3.88578E-16	
0.00915527	0.0195068	3.88578E-16	
-0.00976563	0.0194824	3.88578E-16	
-0.00671387	0.0193054	3.88578E-16	
0.0457764	0.0195679	3.88578E-16	
0.0292969	0.0196106	3.88578E-16	
-0.045166	0.0200439	3.88578E-16	
0.0256348	0.0201538	3.88578E-16	
0.0146484	0.0202637	3.88578E-16	
0.010376	0.0198792	3.88578E-16	
0.0286865	0.0200623	3.88578E-16	
-0.0213623	0.0202332	3.88578E-16	
0.0109863	0.0202698	3.88578E-16	
0.0213623	0.0199219	3.88578E-16	
-0.022583	0.0196838	3.88578E-16	
-0.00183105	0.0195435	3.88578E-16	
0.0299072	0.0195557	3.88578E-16	
-0.0109863	0.0195374	3.88578E-16	
0.0476074	0.019873	3.88578E-16	
-0.0244141	0.0198914	3.88578E-16	
0.0128174	0.0199402	3.88578E-16	
0.043335	0.0197388	3.88578E-16	
0.0201416	0.019928	0	
0.00793457	0.0199463	0	
0.0292969	0.0200806	0	
0.00610352	0.0201233	0	
0.0274658	0.0200195	0	
-0.00976563	0.0199768	0	
0.0158691	0.0200134	0	
0.0378418	0.0202209	3.88578E-16	
0.0323486	0.0202393	3.88578E-16	
-0.0280762	0.0202454	3.88578E-16	
-0.00427246	0.0201355	3.88578E-16	
0.043335	0.0204834	3.88578E-16	
0.00183105	0.0202942	0	
0.0378418	0.0204346	0	
-0.0152588	0.0204895	3.88578E-16	
-0.00610352	0.0204895	3.88578E-16	
0.0457764	0.0205383	3.88578E-16	
-0.00793457	0.020575	3.88578E-16	
0.0250244	0.0207825	3.88578E-16	
0.0292969	0.0206787	3.88578E-16	
-0.0146484	0.0207336	3.88578E-16	
0.0274658	0.0204407	3.88578E-16	
-0.0256348	0.0206848	3.88578E-16	
0.0128174	0.0207458	3.88578E-16	
0.0543213	0.0209229	3.88578E-16	
-0.0219727	0.0209229	3.88578E-16	
-0.0262451	0.0210999	3.88578E-16	
0.0286865	0.0213867	3.88578E-16	
0.00244141	0.0212891	3.88578E-16	
0.020752	0.021405	3.88578E-16	
-0.00549316	0.0212891	3.88578E-16	
0.012207	0.0213745	3.88578E-16	
-0.000610352	0.0211792	3.88578E-16	
0.0292969	0.021228	3.88578E-16	
-0.0158691	0.021344	3.88578E-16	
0.00976563	0.021283	3.88578E-16	
0.0195313	0.0210999	3.88578E-16	
0.00732422	0.0209595	3.88578E-16	
0.0189209	0.0210999	3.88578E-16	
-0.0238037	0.0211792	3.88578E-16	
0.0183105	0.0207703	3.88578E-16	
0.0292969	0.0209229	3.88578E-16	
0.00976563	0.0204651	3.88578E-16	
0.0115967	0.0203918	3.88578E-16	
0.00854492	0.0201172	3.88578E-16	
-0.0213623	0.0203308	3.88578E-16	
0.0476074	0.0204346	3.88578E-16	
-0.00244141	0.020343	3.88578E-16	
-0.00854492	0.0201416	3.88578E-16	
0.0280762	0.0199646	3.88578E-16	
0.0213623	0.0199951	3.88578E-16	
-0.00671387	0.019989	3.88578E-16	
0.043335	0.0202087	3.88578E-16	
0.0390625	0.0205627	3.88578E-16	
-0.0012207	0.0204346	3.88578E-16	
-0.00488281	0.0203125	3.88578E-16	
0.0152588	0.020343	3.88578E-16	
0.0231934	0.0203979	3.88578E-16	
0.0238037	0.0204651	3.88578E-16	
-0.00915527	0.0204285	3.88578E-16	
-0.012207	0.0202454	3.88578E-16	
0.00915527	0.0202515	3.88578E-16	
0.0134277	0.0203186	3.88578E-16	
0.0274658	0.0204651	3.88578E-16	
0.00854492	0.0203796	3.88578E-16	
0.0311279	0.0204224	3.88578E-16	
0.0476074	0.0205627	0.0174386	
-0.0427246	0.0207336	0.0174386	
0.0201416	0.0208008	3.88578E-16	
0.0500488	0.0207581	3.88578E-16	
-0.00793457	0.0207031	3.88578E-16	
0.020752	0.0208069	3.88578E-16	
-0.00793457	0.0206421	3.88578E-16	
0.00183105	0.0204041	3.88578E-16	
0.0488281	0.020697	3.88578E-16	
0.0262451	0.0207947	3.88578E-16	
-0.0354004	0.0210571	3.88578E-16	
0.0524902	0.0213501	3.88578E-16	
0.0402832	0.0215942	3.88578E-16	
-0.0012207	0.0215149	3.88578E-16	
-0.0183105	0.0216003	3.88578E-16	
-0.010376	0.021637	3.88578E-16	
0.0299072	0.0214783	3.88578E-16	
0.0262451	0.0214478	3.88578E-16	
-0.055542	0.0215515	3.88578E-16	
-0.0378418	0.0216736	3.88578E-16	
0.0524902	0.022052	3.88578E-16	
-0.00976563	0.0220459	3.88578E-16	
0.0177002	0.021936	3.88578E-16	
-0.012207	0.0218445	3.88578E-16	
-0.0152588	0.0218872	3.88578E-16	
0.0769043	0.0224426	3.88578E-16	
0.00244141	0.0222412	0	
-0.0170898	0.0223938	0	
0.0378418	0.0224731	0	
-0.00305176	0.0223938	0	
0.0476074	0.0223938	3.88578E-16	
-0.0158691	0.0223083	3.88578E-16	
0.00976563	0.0222778	3.88578E-16	
0.0231934	0.0220764	3.88578E-16	
0.0177002	0.022052	3.88578E-16	
-0.0262451	0.0222351	3.88578E-16	
0.0567627	0.0225098	3.88578E-16	
0.032959	0.0227783	3.88578E-16	
-0.0262451	0.0227661	3.88578E-16	
0.0115967	0.0227844	3.88578E-16	
0.0146484	0.0227722	3.88578E-16	
0.0402832	0.0227966	3.88578E-16	
-0.0140381	0.0226135	3.88578E-16	
-0.020752	0.0225403	3.88578E-16	
0.00305176	0.0225281	3.88578E-16	
0.0256348	0.0223511	3.88578E-16	
0.0152588	0.0224854	3.88578E-16	
0.00976563	0.0222046	3.88578E-16	
-0.022583	0.0222778	3.88578E-16	
0.0201416	0.0224182	3.88578E-16	
0.0506592	0.022467	3.88578E-16	
-0.00366211	0.0224243	3.88578E-16	
-0.00183105	0.0221924	3.88578E-16	
0.0250244	0.0221497	3.88578E-16	
0.00793457	0.0220825	0	
0.03479	0.0221558	0	
-0.0402832	0.0223022	0	
0.0189209	0.0223633	0	
0.0402832	0.0222229	0	
0.00549316	0.0220581	0	
0.0012207	0.0218079	0	
0.012207	0.0216431	0	
0.0286865	0.0219055	3.88578E-16	
0.020752	0.0219055	3.88578E-16	
-0.00732422	0.0219238	3.88578E-16	
-0.00366211	0.0218384	3.88578E-16	
0.0109863	0.0219421	3.88578E-16	
0.043335	0.0220825	3.88578E-16	
-0.0250244	0.0221741	3.88578E-16	
0.0012207	0.0220886	3.88578E-16	
0.0152588	0.0220459	3.88578E-16	
0.0012207	0.0219849	3.88578E-16	
0.0390625	0.0221863	3.88578E-16	
0.00488281	0.0219971	3.88578E-16	
0.0128174	0.0219421	3.88578E-16	
0.0445557	0.0220947	3.88578E-16	
-0.00854492	0.0220825	3.88578E-16	
0.00671387	0.0220337	3.88578E-16	
0.0299072	0.0222473	3.88578E-16	
0.00366211	0.0220703	3.88578E-16	
-0.00244141	0.0216187	3.88578E-16	
-0.0201416	0.0217957	3.88578E-16	
-0.00610352	0.0217712	3.88578E-16	
0.0195313	0.0216858	3.88578E-16	
0.00183105	0.0214905	3.88578E-16	
-0.0134277	0.0215576	0	
0.00854492	0.0212097	0	
0.0354004	0.0211731	0	
0.0305176	0.0214661	3.88578E-16	
-0.00732422	0.0214905	3.88578E-16	
-0.0146484	0.0214844	3.88578E-16	
0.0476074	0.0217285	3.88578E-16	
0.043335	0.0219238	3.88578E-16	
-0.0140381	0.0219727	3.88578E-16	
-0.0170898	0.0220215	3.88578E-16	
0.0323486	0.0222534	3.88578E-16	
-0.0140381	0.0222595	3.88578E-16	
0.0360107	0.022345	3.88578E-16	
0.00427246	0.0223022	3.88578E-16	
0.0183105	0.0221741	3.88578E-16	
0.0250244	0.0219482	3.88578E-16	
-0.00854492	0.0216064	3.88578E-16	
0.0152588	0.0215576	3.88578E-16	
0.0262451	0.0213196	3.88578E-16	
-0.00549316	0.0212952	3.88578E-16	
0.0183105	0.0212708	3.88578E-16	
-0.0292969	0.0214844	3.88578E-16	
-0.0195313	0.0216614	3.88578E-16	
0.0396729	0.0215698	3.88578E-16	
0.0421143	0.0217285	3.88578E-16	
-0.0354004	0.0217285	3.88578E-16	
0.032959	0.0215332	3.88578E-16	
0.0170898	0.0213013	3.88578E-16	
0.0250244	0.0215393	3.88578E-16	
0.0146484	0.0215027	3.88578E-16	
-0.020752	0.0216064	3.88578E-16	
0.00183105	0.0213257	3.88578E-16	
0.03479	0.0214111	3.88578E-16	
-0.0244141	0.0210999	3.88578E-16	
0.0238037	0.0209595	3.88578E-16	
0.0109863	0.0205444	3.88578E-16	
-0.00732422	0.02052	3.88578E-16	
0.0445557	0.0207886	3.88578E-16	
-0.0152588	0.0208191	3.88578E-16	
0.010376	0.0207703	3.88578E-16	
0.0598145	0.0205994	3.88578E-16	
0.00549316	0.0206299	3.88578E-16	
-0.0390625	0.0208496	3.88578E-16	
0.020752	0.0206787	3.88578E-16	
0.0109863	0.0207581	3.88578E-16	
0.0402832	0.0206848	3.88578E-16	
-0.0280762	0.0208069	3.88578E-16	
-0.0262451	0.0209717	0	
0.0360107	0.0210999	0	
0.0341797	0.0212646	0	
-0.0128174	0.0211304	0	
0.022583	0.0207886	0	
0.0384521	0.0208435	3.88578E-16	
0.00976563	0.0206787	3.88578E-16	
0.00915527	0.0206543	3.88578E-16	
-0.00854492	0.0205933	3.88578E-16	
0.0213623	0.0204041	3.88578E-16	
0.0201416	0.0204651	3.88578E-16	
-0.0311279	0.0205688	3.88578E-16	
-0.0146484	0.0206848	3.88578E-16	
-0.00854492	0.0205139	3.88578E-16	
0.0286865	0.0206482	3.88578E-16	
0.0152588	0.0207031	3.88578E-16	
0.00915527	0.0205688	0	
0	0.0203674	0	
0.0616455	0.0204773	0	
0.0256348	0.020697	0	
-0.00305176	0.0207092	3.88578E-16	
0.0152588	0.0206116	3.88578E-16	
0.00915527	0.0206238	3.88578E-16	
-0.000610352	0.020282	3.88578E-16	
-0.00488281	0.019928	3.88578E-16	
-0.0384521	0.0201233	3.88578E-16	
0.0177002	0.0198975	3.88578E-16	
0.0292969	0.0201355	3.88578E-16	
-0.043335	0.0205566	3.88578E-16	
0.0109863	0.0205444	3.88578E-16	
0.0201416	0.020459	0	
0.0323486	0.020575	0	
0.0183105	0.0206848	0	
0	0.0206482	0	
0	0.0205383	0	
0.0427246	0.0205322	0	
-0.000610352	0.0202881	0	
-0.0238037	0.0205139	0	
0.0164795	0.0205261	0	
0.00305176	0.0205444	0	
0.0109863	0.0202637	0	
-0.00854492	0.0203003	3.88578E-16	
-0.00244141	0.0201965	3.88578E-16	
0.065918	0.0204102	3.88578E-16	
0.0421143	0.0207458	3.88578E-16	
-0.012207	0.0208008	3.88578E-16	
0.0189209	0.0206909	3.88578E-16	
0.00732422	0.0207275	3.88578E-16	
0.0543213	0.0212463	3.88578E-16	
-0.00549316	0.0210999	3.88578E-16	
-0.032959	0.0213684	3.88578E-16	
0.0457764	0.0216309	0	
0.022583	0.0218384	0	
-0.0500488	0.0222046	0	
0.00610352	0.0221802	0	
0.0219727	0.0220459	0	
0.0170898	0.0219116	0	
0.03479	0.0221863	0	
-0.012207	0.0221619	0	
0.0317383	0.0220032	3.88578E-16	
0.0512695	0.0220825	3.88578E-16	
-0.0311279	0.0222534	3.88578E-16	
0.0201416	0.0222839	3.88578E-16	
0.0164795	0.0221252	3.88578E-16	
-0.0152588	0.0221375	3.88578E-16	
0.0201416	0.0219788	3.88578E-16	
-0.0390625	0.0223267	3.88578E-16	
-0.0189209	0.0223328	3.88578E-16	
0.0531006	0.0226135	3.88578E-16	
0.0115967	0.022644	3.88578E-16	
-0.010376	0.0225952	3.88578E-16	
0.0366211	0.022699	3.88578E-16	
0.0720215	0.0233643	3.88578E-16	
0.0384521	0.0235657	3.88578E-16	
0.0177002	0.0234497	3.88578E-16	
-0.0170898	0.0234253	3.88578E-16	
0.0689697	0.0237183	3.88578E-16	
0.0109863	0.023407	3.88578E-16	
-0.0646973	0.0237	3.88578E-16	
-0.0305176	0.0236755	3.88578E-16	
0.0372314	0.023877	3.88578E-16	
-0.0408936	0.0240356	3.88578E-16	
0.00427246	0.0239319	3.88578E-16	
-0.0457764	0.0241821	3.88578E-16	
0.0244141	0.024408	3.88578E-16	
0.110474	0.0251648	3.88578E-16	
-0.00671387	0.0249878	3.88578E-16	
-0.0543213	0.025293	3.88578E-16	
0.032959	0.0255127	3.88578E-16	
-0.00976563	0.0255371	3.88578E-16	
0.0311279	0.0254028	3.88578E-16	
-0.0457764	0.025708	3.88578E-16	
0.00427246	0.025647	3.88578E-16	
0.0585938	0.0256348	3.88578E-16	
0.032959	0.0259094	0.0174386	
0.00183105	0.0255371	0.0174386	
0.0982666	0.0263123	0.0174386	
0.219116	0.0283936	0.0174386	
0.0439453	0.0284302	0.0174386	
-0.0494385	0.0286438	0.0174386	
0.03479	0.0287292	0.0174386	
0.0152588	0.0285217	0.0174386	
-0.00183105	0.0281982	0.0348772	
-0.0994873	0.0290649	0.0348772	
-0.0836182	0.0296753	0.0348772	
-0.0756836	0.0300476	0.0523158	
-0.065918	0.0306091	0.0523158	
-0.0384521	0.0309021	0.0697545	
-0.0323486	0.0311401	0.0871931	
0.0213623	0.0311401	0.104632	
0.0305176	0.0312439	0.12207	
0.0537109	0.0314697	0.139509	
-0.0524902	0.0318481	0.139509	
-0.0128174	0.0318909	0.156948	
0.00793457	0.0316833	0.174386	
0.0323486	0.0318542	0.191825	
0.0219727	0.0319824	0.191825	
0.0402832	0.0323853	0.209263	
0.131226	0.0330811	0.209263	
-0.0146484	0.0329712	0.226702	
0.0177002	0.0331177	0.244141	
0.0585938	0.033551	0.244141	
0.166626	0.0351257	0.261579	
0.00732422	0.0351929	0.279018	
-0.122681	0.0363708	0.279018	
0.00915527	0.0360779	0.296456	
-0.0646973	0.0365479	0.313895	
-0.032959	0.0365845	0.313895	
-0.0915527	0.0370667	0.331334	
-0.0183105	0.0371399	0.331334	
0.19104	0.0388489	0.348772	
-0.142822	0.0399536	0.366211	
0.15564	0.0413269	0.38365	
0.238037	0.0437073	0.401088	
0.223389	0.0459412	0.435965	
-0.0793457	0.0463074	0.453404	
0.10376	0.0473389	0.470843	
-0.0317383	0.0474182	0.488281	
-0.0378418	0.0476318	0.50572	
0.0140381	0.0477417	0.540597	
-0.175171	0.0493835	0.558036	
-0.232544	0.0516235	0.592913	
-0.12146	0.0528137	0.62779	
-0.0756836	0.0529114	0.662667	
-0.0238037	0.0527283	0.697545	
-0.0744629	0.0533508	0.732422	
0.0646973	0.0538086	0.767299	
0.120239	0.0549377	0.819615	
-0.0683594	0.0550781	0.854492	
0.0115967	0.0551392	0.906808	
0.0750732	0.0555603	0.941685	
0.126953	0.0563721	0.994001	
0.0201416	0.0563477	1.02888	
-0.0408936	0.0562561	1.08119	
0.0299072	0.0564941	1.13351	
0.0439453	0.0567139	1.18583	
0.205078	0.0585938	1.23814	
0.0274658	0.0585205	1.29046	
-0.022583	0.0586243	1.36021	
0.0708008	0.0590149	1.41253	
0.202637	0.0605286	1.48228	
-0.0701904	0.0609192	1.5346	
0.045166	0.0611694	1.58691	
-0.0250244	0.0612549	1.63923	
0.00427246	0.061145	1.70898	
0.232544	0.063269	1.7613	
-0.00305176	0.0629089	1.81362	
-0.0921631	0.0636414	1.88337	
0.161743	0.0647278	1.95313	
0.134277	0.0659546	2.02288	
-0.12207	0.0670715	2.09263	
0.0354004	0.0670593	2.17983	
-0.03479	0.066687	2.24958	
-0.0689697	0.0669922	2.31934	
-0.00549316	0.0668701	2.38909	
-0.043335	0.0671326	2.45884	
-0.0634766	0.0670776	2.51116	
-0.152588	0.0684937	2.58092	
0.108032	0.068927	2.63323	
0	0.0686218	2.68555	
-0.0439453	0.068689	2.73786	
0.0726318	0.0690063	2.79018	
0.055542	0.069519	2.84249	
-0.0714111	0.0697754	2.89481	
-0.0201416	0.0697327	2.94713	
0.161133	0.0702393	2.99944	
0.139771	0.0715698	3.05176	
-0.15625	0.0725891	3.10407	
0.125122	0.0735107	3.17383	
0.0811768	0.0742249	3.24358	
-0.0421143	0.0743347	3.31334	
-0.0769043	0.074646	3.38309	
0.103149	0.0756348	3.47028	
0.0134277	0.0751831	3.54004	
-0.0933838	0.0757874	3.59235	
-0.119019	0.0769592	3.66211	
0.0170898	0.0761475	3.71443	
0.0140381	0.0740967	3.76674	
-0.0640869	0.0742981	3.80162	
-0.112915	0.0749329	3.85393	
-0.106812	0.0756531	3.90625	
0.0994873	0.0764954	3.95857	
0.0372314	0.0768494	4.01088	
-0.0836182	0.0766907	4.0632	
0	0.0758545	4.13295	
0.0219727	0.0753174	4.18527	
0.0799561	0.0754578	4.25502	
0.128174	0.076355	4.30734	
0.101929	0.0770508	4.35965	
0.0238037	0.0770752	4.42941	
0.200806	0.0787781	4.46429	
0.0726318	0.0789673	4.5166	
-0.078125	0.0792236	4.55148	
0.00610352	0.0791565	4.58636	
0.0341797	0.0794189	4.60379	
-0.0616455	0.0797119	4.63867	
-0.0909424	0.0804016	4.67355	
-0.0683594	0.0806824	4.69099	
0.0457764	0.0798279	4.72586	
0.0238037	0.0799194	4.7433	
-0.10376	0.08078	4.77818	
0.088501	0.0810791	4.79562	
0.0396729	0.0798096	4.81306	
0.0604248	0.0803406	4.8305	
0.0866699	0.0799805	4.84794	
-0.0219727	0.0801086	4.86537	
-0.0183105	0.0796448	4.86537	
0.0695801	0.080011	4.88281	
0.200195	0.0810974	4.90025	
0.0274658	0.081189	4.90025	
-0.159912	0.0808777	4.91769	
0.0720215	0.0801697	4.93513	
-0.0170898	0.0787842	4.95257	
0.0390625	0.0767944	4.97001	
-0.152588	0.0760864	4.98744	
-0.0244141	0.0755371	5.00488	
-0.0311279	0.0748108	5.02232	
-0.032959	0.074823	5.03976	
0.0305176	0.0747498	5.07464	
-0.224609	0.0768555	5.09208	
0.0708008	0.0758118	5.10951	
0.187988	0.0753662	5.10951	
0.186768	0.0760193	5.12695	
-0.154419	0.0768066	5.14439	
-0.146484	0.0780334	5.16183	
0.128784	0.0785767	5.17927	
0.0109863	0.0780396	5.19671	
-0.0708008	0.0775452	5.19671	
-0.0518799	0.0773804	5.21415	
-0.0946045	0.0782104	5.23158	
-0.19043	0.079364	5.24902	
-0.057373	0.0786682	5.26646	
-0.00915527	0.0785583	5.26646	
-0.0799561	0.078949	5.2839	
0.0317383	0.0789673	5.30134	
0.0616455	0.0791443	5.31878	
0.0366211	0.0774597	5.31878	
0.0646973	0.077832	5.33622	
0.0415039	0.0780212	5.33622	
0.106812	0.0783813	5.35366	
0.128784	0.0776428	5.35366	
0.0982666	0.0779236	5.37109	
0.0500488	0.0779724	5.37109	
-0.0561523	0.0782837	5.37109	
0.0531006	0.078772	5.37109	
0.0354004	0.0768005	5.37109	
-0.0720215	0.0774902	5.37109	
-0.0976563	0.0775452	5.37109	
-0.0646973	0.0765747	5.37109	
-0.00549316	0.0752869	5.37109	
-0.0244141	0.0743103	5.37109	
-0.0128174	0.0740845	5.37109	
0.0457764	0.0741943	5.37109	
0	0.0735046	5.37109	
-0.032959	0.0737793	5.37109	
-0.0653076	0.073999	5.37109	
0.0787354	0.0741516	5.37109	
0.153198	0.0741577	5.37109	
-0.0756836	0.0738342	5.37109	
0.00366211	0.0738708	5.37109	
0.0231934	0.0736633	5.35366	
0.0128174	0.0730652	5.35366	
0.0250244	0.07276	5.35366	
0.0146484	0.0721924	5.33622	
-0.03479	0.0723389	5.33622	
0.150757	0.0722351	5.31878	
-0.0836182	0.0716736	5.30134	
-0.0170898	0.070282	5.2839	
-0.130615	0.0703369	5.26646	
0.0244141	0.0697693	5.23158	
0.108643	0.0704346	5.21415	
-0.0537109	0.0702026	5.17927	
-0.0744629	0.0699158	5.14439	
0.022583	0.0700073	5.10951	
0	0.0690735	5.07464	
-0.0146484	0.0680298	5.03976	
0.0292969	0.0681519	5.00488	
-0.0817871	0.0688293	4.97001	
0.0115967	0.0683044	4.95257	
0.0708008	0.0678833	4.91769	
0.0115967	0.0669312	4.90025	
-0.0012207	0.0659485	4.88281	
0.112915	0.0667053	4.86537	
0.00183105	0.0658875	4.86537	
0.0585938	0.0664734	4.84794	
-0.0689697	0.0669434	4.8305	
0.078125	0.066925	4.8305	
0.0128174	0.0657715	4.81306	
0.0500488	0.0652527	4.81306	
-0.043335	0.065448	4.81306	
0.0457764	0.0638977	4.79562	
-0.0701904	0.0638733	4.77818	
-0.0524902	0.0636169	4.77818	
0.0262451	0.0638184	4.76074	
-0.00305176	0.0635071	4.76074	
0.0335693	0.0632263	4.7433	
-0.0213623	0.0625305	4.72586	
-0.0360107	0.062207	4.72586	
0.0341797	0.0620911	4.70843	
0.0469971	0.062323	4.69099	
-0.0268555	0.061554	4.69099	
0.0805664	0.0614746	4.67355	
0.0756836	0.0618347	4.65611	
-0.0360107	0.0615906	4.63867	
-0.0177002	0.0609009	4.63867	
-0.0219727	0.0609009	4.62123	
0.0793457	0.0615112	4.60379	
0.0598145	0.0614136	4.58636	
-0.022583	0.0596375	4.58636	
0.12207	0.0605835	4.56892	
0.143433	0.0604187	4.55148	
-0.078125	0.0604797	4.55148	
0.0274658	0.0605835	4.53404	
0.067749	0.0608704	4.5166	
-0.0286865	0.0596313	4.49916	
-0.0469971	0.0598572	4.49916	
0.010376	0.0596497	4.48172	
-0.0592041	0.0599121	4.46429	
-0.0714111	0.060321	4.44685	
-0.109253	0.0591675	4.44685	
0.178833	0.0602478	4.44685	
-0.022583	0.0585938	4.42941	
-0.0817871	0.0575439	4.42941	
0.0402832	0.0564026	4.42941	
0.0109863	0.0550476	4.41197	
-0.0622559	0.0543823	4.41197	
-0.0109863	0.0543823	4.39453	
0.00793457	0.0537537	4.39453	
0.010376	0.0533386	4.37709	
-0.0683594	0.0530762	4.37709	
-0.0390625	0.0515625	4.37709	
0.00671387	0.0510559	4.35965	
0.0476074	0.0514404	4.35965	
-0.0140381	0.0507813	4.34222	
0.0164795	0.0506287	4.34222	
0.112305	0.0511353	4.34222	
0.0354004	0.051123	4.34222	
0.194702	0.0524231	4.32478	
0.0543213	0.0525513	4.32478	
0.0177002	0.0516602	4.32478	
0.106812	0.0514404	4.30734	
0.127563	0.0517334	4.30734	
0.0164795	0.0513977	4.2899	
0.0317383	0.0511536	4.2899	
-0.188599	0.0525085	4.27246	
0.0653076	0.0528076	4.27246	
-0.0561523	0.0526489	4.25502	
-0.165405	0.0533264	4.25502	
0.00244141	0.0527039	4.23758	
-0.0335693	0.0529846	4.23758	
-0.0341797	0.0530823	4.23758	
0.022583	0.0531799	4.23758	
-0.0811768	0.0535339	4.22015	
0.0921631	0.0544556	4.22015	
0.133057	0.0554565	4.22015	
-0.183105	0.0566345	4.22015	
0.103149	0.0568787	4.22015	
0.109253	0.0564392	4.20271	
-0.0109863	0.0557922	4.20271	
-0.0549316	0.0563049	4.18527	
0.0708008	0.056781	4.18527	
-0.0683594	0.0573364	4.18527	
0.0305176	0.0573914	4.16783	
0.0146484	0.0573914	4.16783	
-0.0335693	0.0573792	4.16783	
0.0012207	0.0558838	4.15039	
0.0994873	0.0560425	4.15039	
0.0189209	0.0560608	4.15039	
0.0842285	0.0555969	4.15039	
0.122681	0.0565796	4.13295	
0.0280762	0.0557739	4.13295	
0.0823975	0.0560608	4.13295	
-0.0799561	0.0561157	4.13295	
0.00610352	0.0559509	4.13295	
-0.00732422	0.0560242	4.13295	
-0.13916	0.0572693	4.13295	
0.0500488	0.0574768	4.13295	
0.00671387	0.0567261	4.13295	
-0.147705	0.0580872	4.13295	
0.0878906	0.0582581	4.13295	
0.0543213	0.0586853	4.13295	
-0.0268555	0.0589417	4.13295	
0.0598145	0.0584106	4.11551	
-0.0183105	0.0585754	4.11551	
-0.0354004	0.0583435	4.11551	
0.106201	0.0587158	4.11551	
-0.0738525	0.0586731	4.11551	
0.0335693	0.0588806	4.11551	
-0.0915527	0.0592957	4.11551	
0.0201416	0.0590637	4.11551	
0.0836182	0.0594421	4.11551	
0.00366211	0.0587769	4.11551	
0.0140381	0.0583923	4.11551	
0.112915	0.059259	4.11551	
0.012207	0.0593506	4.11551	
-0.057373	0.0595886	4.11551	
0.0384521	0.0597595	4.11551	
0.012207	0.0595215	4.11551	
0.0262451	0.0594421	4.11551	
0.0402832	0.059375	4.11551	
-0.0335693	0.0594421	4.11551	
-0.0494385	0.0591309	4.11551	
-0.0250244	0.0586243	4.11551	
-0.0323486	0.0585876	4.11551	
0.130005	0.0597107	4.11551	
0.0305176	0.0597961	4.11551	
0.0268555	0.0592712	4.11551	
0.0720215	0.0593933	4.11551	
-0.0543213	0.0597107	4.11551	
0.00610352	0.058551	4.11551	
0.0170898	0.0572876	4.11551	
0.00976563	0.056604	4.11551	
-0.0268555	0.0565979	4.11551	
-0.0390625	0.056311	4.11551	
-0.00793457	0.0561035	4.11551	
0.00183105	0.0556519	4.11551	
-0.0512695	0.0560608	4.11551	
-0.00427246	0.0555115	4.11551	
0.105591	0.0558533	4.11551	
0.0756836	0.0555176	4.11551	
0.00183105	0.0537476	4.11551	
0.00610352	0.0535828	4.11551	
0.0653076	0.053418	4.11551	
0.0372314	0.0533875	4.11551	
0.0341797	0.0536194	4.11551	
-0.0244141	0.053241	4.11551	
0.0604248	0.0537354	4.11551	
-0.0439453	0.0540955	4.11551	
-0.108643	0.0550781	4.11551	
0.00854492	0.05448	4.11551	
-0.0299072	0.0543884	4.11551	
-0.0311279	0.0546326	4.11551	
0.057373	0.0547302	4.11551	
-0.0531006	0.0551208	4.11551	
0.0201416	0.0551575	4.11551	
-0.00244141	0.0540588	4.11551	
-0.0653076	0.0543579	4.11551	
0.0726318	0.0531372	4.11551	
0.00305176	0.0526245	4.11551	
-0.020752	0.052655	4.11551	
-0.00854492	0.0516724	4.11551	
0.0372314	0.050769	4.11551	
0.0445557	0.0510498	4.13295	
0.0012207	0.0507446	4.13295	
0.112305	0.0499817	4.13295	
0.0787354	0.050116	4.13295	
-0.0500488	0.0500549	4.13295	
0.0164795	0.0485657	4.13295	
0.0726318	0.0492676	4.13295	
0.0170898	0.0491028	4.13295	
-0.0158691	0.0489197	4.13295	
0.055542	0.0492493	4.13295	
0.119019	0.0496277	4.13295	
-0.120239	0.0499084	4.13295	
0.0299072	0.048877	4.13295	
0.020752	0.0472534	4.13295	
-0.045166	0.0466736	4.13295	
0.0738525	0.0463196	4.13295	
-0.020752	0.0464172	4.13295	
-0.0598145	0.0464661	4.13295	
-0.0933838	0.0466919	4.13295	
-0.0286865	0.0462952	4.13295	
0.115967	0.0471497	4.13295	
0.115356	0.0481567	4.13295	
-0.0939941	0.048761	4.13295	
0.088501	0.0496338	4.13295	
0.0354004	0.0489929	4.13295	
-0.090332	0.049707	4.13295	
0.126953	0.0501343	4.13295	
0.114136	0.0500488	4.13295	
-0.0457764	0.0502258	4.13295	
-0.0158691	0.0495605	4.13295	
-0.00610352	0.048822	4.13295	
0.0408936	0.0491699	4.13295	
0	0.0490967	4.13295	
-0.13855	0.0490906	4.13295	
0.0170898	0.048761	4.13295	
-0.0152588	0.0488464	4.13295	
-0.0732422	0.0481018	4.13295	
-0.0286865	0.0475098	4.13295	
-0.0390625	0.0473572	4.13295	
-0.010376	0.0471924	4.13295	
0.0866699	0.0474609	4.13295	
0.0610352	0.0478882	4.13295	
0.0872803	0.048407	4.13295	
0.0976563	0.0483215	4.13295	
0.115356	0.0487366	4.13295	
0.0561523	0.0489624	4.15039	
0.0134277	0.0481812	4.15039	
0.012207	0.0481018	4.15039	
0.12085	0.0484741	4.15039	
0.0878906	0.0493164	4.15039	
-0.175781	0.0509338	4.15039	
-0.13916	0.0511963	4.15039	
0.045166	0.0515259	4.15039	
0.00610352	0.0510132	4.15039	
-0.0469971	0.0510986	4.15039	
-0.112915	0.0521057	4.15039	
-0.0323486	0.0521667	4.15039	
0.0769043	0.052533	4.16783	
-0.0231934	0.0524292	4.16783	
-0.00732422	0.0520081	4.18527	
0.00427246	0.0518005	4.18527	
0.0183105	0.0516602	4.20271	
0.0842285	0.0512024	4.20271	
-0.0213623	0.0511108	4.22015	
0.065918	0.0515015	4.22015	
-0.065918	0.0514404	4.23758	
0.140991	0.0523071	4.23758	
0.0897217	0.0531433	4.25502	
-0.0579834	0.0535522	4.25502	
0.0341797	0.0537964	4.25502	
-0.0128174	0.053656	4.27246	
0.108032	0.0543457	4.27246	
-0.108643	0.0553528	4.27246	
-0.0231934	0.0555664	4.27246	
-0.0152588	0.0552063	4.27246	
0.010376	0.0552673	4.2899	
-0.0830078	0.0550415	4.2899	
-0.00427246	0.0543274	4.2899	
-0.00915527	0.0544006	4.2899	
0.0354004	0.0546936	4.2899	
0.0738525	0.0547791	4.30734	
0.0311279	0.054718	4.30734	
0.00549316	0.0544312	4.30734	
0.0366211	0.0545532	4.32478	
-0.0305176	0.0542542	4.32478	
0.0616455	0.0544312	4.32478	
0.020752	0.0535522	4.32478	
0.0115967	0.0535828	4.34222	
-0.00854492	0.0533691	4.34222	
-0.00244141	0.0530823	4.34222	
0.012207	0.0526306	4.34222	
0.170288	0.0538025	4.34222	
-0.0195313	0.0537964	4.34222	
0.0140381	0.0539124	4.34222	
0.00427246	0.053302	4.34222	
0.0354004	0.0529297	4.34222	
0.010376	0.0530029	4.34222	
0.0256348	0.0530518	4.34222	
-0.0518799	0.0534851	4.34222	
-0.0976563	0.0540894	4.34222	
-0.0494385	0.0541382	4.34222	
0.067749	0.0548035	4.34222	
0.0518799	0.0541992	4.34222	
-0.0567627	0.0539795	4.34222	
0.0189209	0.0536682	4.35965	
-0.0628662	0.0541321	4.35965	
-0.0646973	0.0540527	4.35965	
0.0799561	0.0546814	4.35965	
-0.12085	0.0557312	4.34222	
0.0402832	0.0555786	4.34222	
0.0866699	0.0552551	4.34222	
-0.0244141	0.0542969	4.34222	
0.0488281	0.0544861	4.34222	
0.022583	0.0545044	4.34222	
0.129395	0.0553467	4.34222	
0.0628662	0.0552368	4.34222	
-0.0256348	0.0552856	4.34222	
-0.0183105	0.0548706	4.34222	
0.0543213	0.05448	4.35965	
0.0567627	0.0547607	4.35965	
-0.0378418	0.0539795	4.35965	
-0.0378418	0.0532043	4.35965	
-0.0646973	0.0529114	4.35965	
0.0683594	0.05271	4.35965	
0.055542	0.0529114	4.35965	
0.140991	0.053418	4.35965	
0.0427246	0.0525757	4.35965	
-0.0854492	0.0522888	4.35965	
-0.0115967	0.051947	4.35965	
0.0189209	0.0519775	4.35965	
0.0952148	0.0528687	4.34222	
-0.0616455	0.0530762	4.34222	
-0.151367	0.0545898	4.34222	
0.00976563	0.053302	4.34222	
0.0280762	0.0534119	4.34222	
0.130005	0.0545593	4.34222	
-0.0732422	0.0545593	4.34222	
0.0445557	0.054718	4.34222	
0.189819	0.0562256	4.34222	
0.0268555	0.0563904	4.34222	
-0.0445557	0.0559692	4.34222	
0.0244141	0.055603	4.34222	
-0.0360107	0.0550903	4.34222	
-0.0421143	0.0545349	4.34222	
-0.0708008	0.0540894	4.34222	
0.148926	0.0550171	4.34222	
0.0787354	0.0556702	4.34222	
-0.180664	0.0573547	4.34222	
0.111694	0.0572632	4.34222	
0.0756836	0.0571411	4.34222	
-0.00366211	0.0554199	4.34222	
-0.00244141	0.0540527	4.34222	
0.00305176	0.0536316	4.34222	
-0.115356	0.0547241	4.34222	
-0.0970459	0.0552246	4.34222	
-0.0311279	0.0544067	4.34222	
0.055542	0.0546387	4.34222	
-0.0408936	0.0542786	4.34222	
0.00244141	0.054071	4.34222	
0.162964	0.0556274	4.34222	
0.150146	0.0570862	4.34222	
-0.123291	0.058136	4.34222	
0.0292969	0.0575867	4.34222	
0.0628662	0.0580017	4.34222	
0.0323486	0.057666	4.34222	
0.0115967	0.0571228	4.34222	
-0.105591	0.0567688	4.34222	
-0.0305176	0.0561768	4.34222	
0.03479	0.0559448	4.34222	
0.0610352	0.0562134	4.34222	
0.0585938	0.0566711	4.34222	
0.0256348	0.0558472	4.34222	
-0.0720215	0.055481	4.34222	
0.0189209	0.0554382	4.34222	
0.19104	0.057196	4.34222	
0.0872803	0.0579651	4.35965	
-0.0512695	0.0576477	4.35965	
0.00549316	0.0576599	4.35965	
-0.0354004	0.0579224	4.35965	
-0.0421143	0.0579895	4.35965	
0.0921631	0.0581726	4.35965	
-0.0817871	0.0586792	4.35965	
-0.0646973	0.0592712	4.35965	
-0.114746	0.0600525	4.35965	
-0.0500488	0.0602478	4.35965	
0.0579834	0.0602112	4.35965	
0.00183105	0.060022	4.35965	
0.0689697	0.0605957	4.35965	
-0.0488281	0.0609985	4.35965	
-0.0164795	0.0611389	4.37709	
0.12146	0.0622314	4.37709	
-0.0561523	0.0610901	4.37709	
0.0360107	0.0612549	4.37709	
0.167236	0.0627869	4.37709	
-0.0402832	0.063147	4.37709	
-0.00305176	0.0628235	4.37709	
0.0256348	0.0629761	4.37709	
-0.124512	0.0639648	4.37709	
0.171509	0.0651611	4.37709	
0.0732422	0.064917	4.37709	
-0.0891113	0.0653137	4.37709	
0.0427246	0.0650635	4.37709	
-0.0830078	0.0653748	4.37709	
-0.0170898	0.064978	4.37709	
0.0366211	0.065155	4.37709	
0.0683594	0.06521	4.37709	
0.0482178	0.0650452	4.37709	
0.0628662	0.0648743	4.37709	
0.00976563	0.0637634	4.37709	
0.0738525	0.0640991	4.37709	
-0.0775146	0.0640076	4.37709	
0.000610352	0.0637695	4.37709	
0.010376	0.063385	4.37709	
-0.0628662	0.0637878	4.37709	
-0.142822	0.0639221	4.37709	
0.0213623	0.0635071	4.37709	
-0.106201	0.0643127	4.37709	
-0.0109863	0.0642395	4.37709	
-0.0109863	0.0638062	4.37709	
0.078125	0.0640198	4.37709	
0.0506592	0.0641479	4.37709	
0.0494385	0.0642639	4.37709	
0.0152588	0.0637695	4.37709	
0.108032	0.0641663	4.37709	
0.134277	0.0649536	4.37709	
0.0726318	0.06427	4.37709	
-0.145264	0.0652954	4.37709	
0.0457764	0.0648987	4.37709	
0.219116	0.0669739	4.37709	
0	0.0667847	4.35965	
-0.0640869	0.0664734	4.35965	
-0.0128174	0.0659851	4.35965	
0.0488281	0.0649597	4.35965	
-0.0592041	0.0654541	4.35965	
-0.0604248	0.0657776	4.35965	
-0.00854492	0.064563	4.35965	
0.00244141	0.063855	4.35965	
-0.03479	0.0637573	4.35965	
0.0421143	0.0622803	4.35965	
-0.045166	0.0624634	4.35965	
0.132446	0.0633423	4.35965	
-0.067749	0.0637756	4.35965	
-0.0500488	0.063916	4.35965	
0.189209	0.065387	4.35965	
0.0408936	0.0650879	4.34222	
-0.0158691	0.0637573	4.34222	
0.0201416	0.0631714	4.34222	
-0.0579834	0.0619446	4.34222	
-0.0756836	0.0615845	4.34222	
0.0274658	0.0611023	4.34222	
0.03479	0.0614136	4.34222	
-0.0531006	0.0619202	4.34222	
-0.0830078	0.0627197	4.35965	
0.00549316	0.0616211	4.35965	
-0.00305176	0.0606812	4.35965	
-0.0378418	0.0607483	4.35965	
0.0811768	0.0610046	4.35965	
0.0622559	0.0612183	4.35965	
0.0457764	0.0616516	4.35965	
0.0109863	0.0601318	4.35965	
0.101318	0.0596436	4.35965	
-0.057373	0.0589844	4.35965	
0.0134277	0.0588257	4.35965	
0.020752	0.0584045	4.35965	
0.0128174	0.0582092	4.35965	
-0.0012207	0.0581055	4.35965	
-0.0311279	0.0573608	4.35965	
-0.03479	0.0574036	4.35965	
0.090332	0.057959	4.35965	
-0.020752	0.0575562	4.35965	
0.0598145	0.0575684	4.35965	
0.0695801	0.0580078	4.35965	
0.15686	0.0588562	4.35965	
0.0799561	0.0594666	4.35965	
-0.0445557	0.0580017	4.35965	
-0.0146484	0.0572754	4.35965	
-0.00427246	0.0568054	4.34222	
0.0305176	0.0570557	4.34222	
-0.114136	0.057843	4.34222	
-0.020752	0.0576294	4.34222	
-0.0671387	0.0573792	4.34222	
-0.0177002	0.0567383	4.34222	
0.00610352	0.0561523	4.34222	
0.0384521	0.0553894	4.34222	
-0.022583	0.0551147	4.34222	
0.0933838	0.0554687	4.34222	
-0.0250244	0.0557007	4.34222	
0.00793457	0.0550903	4.34222	
-0.0366211	0.0549683	4.34222	
-0.0537109	0.0553406	4.34222	
0.010376	0.0542297	4.34222	
-0.00183105	0.0536865	4.32478	
-0.0579834	0.0539062	4.32478	
0.0488281	0.0527222	4.32478	
0.0128174	0.0524475	4.32478	
-0.0170898	0.0525879	4.32478	
0.0372314	0.0527039	4.32478	
-0.00305176	0.0514893	4.32478	
-0.00183105	0.0497925	4.32478	
0.115356	0.0502136	4.32478	
0.020752	0.04953	4.30734	
0.0628662	0.0497314	4.30734	
0.100098	0.0499023	4.30734	
0.0549316	0.0502808	4.2899	
0.0549316	0.0504639	4.2899	
0.0671387	0.0504517	4.27246	
0.126343	0.0512329	4.27246	
0.134277	0.051947	4.25502	
-0.0213623	0.052063	4.25502	
0.0634766	0.0519592	4.23758	
-0.043335	0.0516174	4.23758	
-0.0152588	0.0517639	4.23758	
-0.0219727	0.0518799	4.22015	
-0.00488281	0.0513	4.22015	
-0.170288	0.0515747	4.22015	
-0.0482178	0.0518433	4.20271	
-0.0531006	0.0513123	4.20271	
-0.0823975	0.0520264	4.20271	
-0.0128174	0.0520447	4.20271	
0.0463867	0.0517273	4.20271	
0.0531006	0.0517517	4.20271	
-0.020752	0.0514648	4.20271	
-0.0268555	0.0515808	4.20271	
0.0793457	0.0512939	4.20271	
0.125122	0.0512024	4.20271	
0.00244141	0.0505005	4.20271	
-0.065918	0.049707	4.20271	
-0.00488281	0.0492981	4.20271	
0.0402832	0.0475098	4.20271	
0.0982666	0.0484924	4.20271	
0.0445557	0.0482971	4.20271	
-0.0506592	0.0486755	4.18527	
0.03479	0.0485352	4.18527	
0.19043	0.0498474	4.18527	
0.0891113	0.0501343	4.18527	
-0.0158691	0.0502075	4.16783	
-0.0408936	0.050592	4.16783	
-0.0311279	0.0505554	4.16783	
-0.115356	0.0512878	4.16783	
-0.0463867	0.0513	4.16783	
-0.0299072	0.0502747	4.16783	
-0.0939941	0.0505371	4.16783	
-0.0402832	0.0504395	4.16783	
-0.078125	0.0493286	4.18527	
0.0183105	0.0491028	4.18527	
0.022583	0.0491699	4.18527	
0.0939941	0.0499084	4.18527	
0.166016	0.0509888	4.18527	
-0.0396729	0.0506287	4.20271	
0.0195313	0.0505493	4.20271	
0.00244141	0.0502258	4.20271	
-0.0341797	0.0500366	4.20271	
0.0946045	0.0501526	4.20271	
-0.0286865	0.0503845	4.20271	
0.0476074	0.0508301	4.20271	
0.0280762	0.0507324	4.20271	
-0.045166	0.0503723	4.20271	
0.0488281	0.050238	4.20271	
0.0762939	0.0505432	4.20271	
0.0158691	0.050592	4.20271	
0.0427246	0.0500061	4.20271	
0.0909424	0.0503418	4.20271	
0.0213623	0.0504211	4.20271	
-0.136719	0.0515808	4.20271	
-0.0360107	0.0518127	4.20271	
0.088501	0.0526855	4.20271	
-0.0323486	0.0526978	4.20271	
-0.143433	0.0537842	4.20271	
-0.0708008	0.0535889	4.20271	
0.0134277	0.0535156	4.20271	
-0.0292969	0.0532104	4.20271	
0.00976563	0.0526123	4.20271	
0.0341797	0.0513855	4.20271	
0.117798	0.0517639	4.22015	
0.230103	0.0536194	4.22015	
-0.0897217	0.0543701	4.22015	
0.0671387	0.0549988	4.22015	
0.126953	0.0559631	4.23758	
-0.0848389	0.0556702	4.23758	
0.057373	0.0560364	4.23758	
0.0653076	0.0560181	4.23758	
-0.164795	0.057489	4.23758	
-0.148926	0.0589172	4.23758	
-0.00488281	0.0585815	4.23758	
0.0488281	0.058844	4.23758	
0.0585938	0.0584961	4.23758	
-0.0708008	0.0589539	4.25502	
0.0250244	0.0591248	4.25502	
-0.0286865	0.0590454	4.25502	
-0.0714111	0.0592224	4.25502	
0.0445557	0.0595642	4.27246	
0.0354004	0.0598999	4.27246	
-0.032959	0.0596497	4.27246	
-0.0183105	0.0593445	4.27246	
0.106812	0.0602844	4.27246	
0.03479	0.0604614	4.27246	
0.0524902	0.060614	4.27246	
0.00915527	0.060675	4.27246	
0.0250244	0.060907	4.27246	
0.111084	0.0608643	4.27246	
0.0360107	0.0610168	4.27246	
0.0720215	0.0611084	4.27246	
-0.0286865	0.0603943	4.27246	
-0.0506592	0.0603516	4.27246	
-0.0177002	0.0599792	4.27246	
0.130005	0.0606079	4.27246	
-0.0292969	0.0596375	4.27246	
0.0268555	0.0585632	4.27246	
-0.0177002	0.0585266	4.27246	
-0.118408	0.0590759	4.27246	
-0.00244141	0.058667	4.27246	
-0.00976563	0.0586121	4.27246	
-0.0128174	0.0585205	4.2899	
-0.0262451	0.0587341	4.2899	
-0.0628662	0.0576599	4.2899	
0.00549316	0.0572327	4.2899	
0.0402832	0.0571045	4.2899	
-0.0805664	0.0570862	4.27246	
0.010376	0.0570618	4.27246	
0.065918	0.0572571	4.27246	
0.00183105	0.0567444	4.27246	
0.0598145	0.057135	4.27246	
0.0543213	0.0574097	4.27246	
0.0415039	0.0570312	4.2899	
0.0543213	0.0563232	4.2899	
0.0354004	0.0566528	4.2899	
0.0311279	0.0563049	4.2899	
0.0341797	0.0565979	4.2899	
0.0488281	0.0566833	4.2899	
-0.0335693	0.0560364	4.2899	
-0.0695801	0.0562866	4.2899	
-0.03479	0.0561279	4.2899	
-0.0250244	0.0560303	4.2899	
-0.0128174	0.0542542	4.2899	
-0.0256348	0.0536194	4.2899	
-0.0201416	0.0536621	4.2899	
0.0244141	0.0534973	4.2899	
0.0268555	0.0534546	4.2899	
0.0219727	0.0525208	4.2899	
0.032959	0.0523865	4.2899	
0.0488281	0.0525757	4.2899	
0.0720215	0.052356	4.27246	
0.00732422	0.0520264	4.27246	
0.0421143	0.0516663	4.27246	
0.0238037	0.0517212	4.27246	
-0.0732422	0.0522278	4.27246	
0.0701904	0.0519897	4.27246	
-0.0164795	0.0504944	4.27246	
0.0170898	0.0502686	4.27246	
-0.0476074	0.0505493	4.27246	
0.0701904	0.0512268	4.27246	
-0.0415039	0.0513	4.27246	
0.0921631	0.0512756	4.27246	
0.065918	0.0516479	4.27246	
-0.0567627	0.0517395	4.27246	
-0.0439453	0.0518982	4.27246	
0.055542	0.052002	4.27246	
0.132446	0.0528381	4.27246	
-0.0695801	0.052771	4.27246	
-0.170898	0.0543213	4.27246	
-0.0915527	0.0548096	4.27246	
0.0439453	0.0543396	4.27246	
-0.00976563	0.0542236	4.27246	
0.0262451	0.0531189	4.27246	
0.00549316	0.0528137	4.27246	
-0.0726318	0.052655	4.27246	
0.0756836	0.0530884	4.27246	
0.0189209	0.0518433	4.27246	
0.0250244	0.0513855	4.27246	
0.012207	0.0513733	4.27246	
0.0164795	0.0512451	4.27246	
0.0720215	0.0518677	4.27246	
0.00427246	0.0515686	4.27246	
-0.0366211	0.0507568	4.27246	
0.146484	0.0499207	4.27246	
-0.0512695	0.0495361	4.27246	
0.0543213	0.049408	4.27246	
0.0146484	0.0482849	4.27246	
0.032959	0.0477661	4.27246	
0.0970459	0.0481628	4.27246	
0.00244141	0.0475342	4.27246	
-0.109863	0.0469849	4.27246	
0.0628662	0.0461243	4.27246	
0.175781	0.0478333	4.27246	
0.00610352	0.047406	4.27246	
-0.0360107	0.0471802	4.27246	
-0.0463867	0.046936	4.27246	
-0.0128174	0.046814	4.27246	
0.0286865	0.046814	4.27246	
-0.0592041	0.0466919	4.27246	
0.00549316	0.0463013	4.27246	
-0.106812	0.0470154	4.27246	
0.00976563	0.0467834	4.27246	
0.0195313	0.0467957	4.27246	
0.0195313	0.0459229	4.27246	
-0.00915527	0.0456665	4.27246	
0.0543213	0.0456848	4.27246	
-0.0646973	0.0462402	4.27246	
-0.0335693	0.0463257	4.27246	
0.0231934	0.0454468	4.27246	
0.0805664	0.0458923	4.27246	
0.0115967	0.0452881	4.27246	
0.0384521	0.0453857	4.27246	
0.00488281	0.044928	4.27246	
0.136719	0.0461182	4.25502	
-0.0012207	0.0448303	4.25502	
0.010376	0.0446411	4.25502	
0.0964355	0.0453369	4.25502	
-0.0537109	0.045697	4.25502	
-0.0683594	0.0451965	4.25502	
-0.0549316	0.0457214	4.25502	
-0.0311279	0.0459351	4.27246	
0.111694	0.0469238	4.27246	
-0.0482178	0.0471436	4.27246	
-0.165405	0.0481689	4.27246	
0.0616455	0.0487305	4.27246	
0.205688	0.0503845	4.27246	
0.032959	0.0499084	4.27246	
0.0311279	0.050116	4.27246	
-0.0427246	0.049884	4.27246	
-0.0238037	0.0501038	4.27246	
0.00976563	0.0496033	4.27246	
0.0402832	0.0494629	4.27246	
-0.00854492	0.0491333	4.25502	
-0.0384521	0.0489746	4.25502	
-0.0848389	0.049469	4.25502	
-0.0506592	0.0496643	4.25502	
0.0506592	0.0498291	4.25502	
-0.0183105	0.0495239	4.25502	
-0.010376	0.049292	4.25502	
0.0518799	0.049115	4.25502	
0.100098	0.0497681	4.25502	
-0.00427246	0.0495605	4.25502	
-0.020752	0.0496399	4.25502	
0.142822	0.0508118	4.25502	
0.122681	0.0518372	4.25502	
-0.022583	0.0518188	4.25502	
0.116577	0.0527161	4.25502	
0.043335	0.0529297	4.25502	
-0.100708	0.0536072	4.25502	
0.112915	0.054248	4.25502	
-0.00366211	0.0535645	4.25502	
-0.0476074	0.0539673	4.25502	
0.0415039	0.0539612	4.25502	
-0.0701904	0.054425	4.25502	
-0.0384521	0.0540771	4.25502	
-0.00610352	0.0534363	4.23758	
-0.0469971	0.0537415	4.23758	
0.0561523	0.0541321	4.23758	
0.0524902	0.0541809	4.23758	
-0.108643	0.0545654	4.23758	
-0.0427246	0.0545776	4.23758	
0.0695801	0.0543518	4.23758	
0.0354004	0.0540466	4.23758	
0.145874	0.0549377	4.23758	
0.0823975	0.0553223	4.23758	
-0.0878906	0.0556458	4.23758	
0.112915	0.0554504	4.23758	
0.0408936	0.0551636	4.23758	
-0.0756836	0.0542114	4.23758	
0.0213623	0.0535095	4.23758	
-0.0476074	0.0535461	4.23758	
-0.127563	0.0547241	4.23758	
-0.120239	0.0556641	4.23758	
-0.0421143	0.0560303	4.23758	
0.0793457	0.0560974	4.23758	
-0.0622559	0.0559631	4.23758	
0.090332	0.0566772	4.23758	
0.157471	0.0580017	4.23758	
0.136108	0.0592407	4.23758	
-0.0402832	0.0594788	4.23758	
0.114136	0.0598999	4.23758	
-0.045166	0.0603088	4.23758	
0.022583	0.0601685	4.23758	
0.107422	0.0597778	4.23758	
0.00671387	0.0593323	4.23758	
0.0476074	0.0592651	4.25502	
0.113525	0.0602539	4.25502	
-0.0195313	0.0601196	4.25502	
-0.131226	0.0604614	4.25502	
0.0872803	0.0613098	4.25502	
-0.0140381	0.0603516	4.25502	
-0.109863	0.0608215	4.25502	
0.0567627	0.0596313	4.25502	
-0.115356	0.0607239	4.25502	
-0.0445557	0.0608093	4.25502	
-0.0158691	0.0605042	4.25502	
-0.0274658	0.0606506	4.27246	
0.0250244	0.060614	4.27246	
0.0268555	0.0602905	4.27246	
0.0299072	0.0605347	4.2899	
-0.0604248	0.0600708	4.30734	
-0.0927734	0.0609009	4.30734	
-0.107422	0.0617798	4.32478	
0.00610352	0.0616455	4.32478	
0.00732422	0.0616272	4.34222	
0.0762939	0.0618469	4.34222	
-0.0646973	0.0618469	4.34222	
0.00183105	0.0615295	4.35965	
0.144653	0.0627441	4.35965	
0.12146	0.0631531	4.35965	
0.0915527	0.0639526	4.35965	
0.00427246	0.0636108	4.37709	
0.0762939	0.064325	4.37709	
0.0616455	0.0635742	4.37709	
0.10376	0.0645996	4.37709	
0.0689697	0.0651855	4.39453	
-0.0213623	0.0644348	4.39453	
0.101318	0.0649109	4.39453	
-0.199585	0.0662231	4.39453	
0.0744629	0.0664185	4.39453	
0.157471	0.0676819	4.39453	
-0.0585938	0.0671509	4.39453	
-0.0799561	0.0674683	4.39453	
0.00183105	0.0658325	4.39453	
-0.128174	0.0664978	4.39453	
0.0177002	0.0646179	4.39453	
-0.0421143	0.0647095	4.39453	
-0.112305	0.0655212	4.39453	
-0.043335	0.0655273	4.39453	
-0.0408936	0.0656982	4.39453	
0.00549316	0.0656555	4.39453	
-0.0146484	0.0653992	4.39453	
-0.0640869	0.0659546	4.39453	
0.0708008	0.0662781	4.39453	
0.057373	0.0660034	4.39453	
-0.0012207	0.065509	4.39453	
-0.00427246	0.0650452	4.39453	
0.0402832	0.0652649	4.39453	
0.103149	0.0661926	4.41197	
0.0939941	0.0666138	4.41197	
0.0567627	0.0661804	4.41197	
0.20813	0.068219	4.41197	
0.0976563	0.068988	4.41197	
0.0897217	0.068457	4.41197	
-0.010376	0.067334	4.39453	
0.112305	0.0682312	4.39453	
0.161743	0.0686829	4.39453	
0.144043	0.0696899	4.39453	
-0.0445557	0.0691284	4.37709	
-0.114136	0.0691406	4.37709	
0.162964	0.0707336	4.35965	
0.0280762	0.0705383	4.34222	
0.098877	0.0711121	4.32478	
0.0671387	0.0710815	4.30734	
0.140381	0.0721008	4.27246	
0.128174	0.0733215	4.23758	
0.2771	0.0756226	4.20271	
-0.0927734	0.0759888	4.16783	
0.0872803	0.0763367	4.13295	
0.135498	0.0766052	4.09807	
-0.088501	0.077063	4.0632	
-0.144653	0.0778137	4.02832	
-0.17334	0.0791931	3.99344	
-0.0872803	0.0786072	3.95857	
-0.335083	0.081134	3.92369	
-0.19104	0.0821655	3.88881	
-0.172729	0.0827637	3.85393	
-0.198364	0.0843384	3.80162	
-0.134888	0.0849304	3.7493	
-0.0848389	0.0855652	3.69699	
-0.0628662	0.0857178	3.64467	
-0.201416	0.0864563	3.57492	
-0.0994873	0.0862488	3.5226	
-0.0280762	0.0861084	3.43541	
0.110474	0.0864197	3.36565	
-0.0421143	0.0862183	3.27846	
-0.113525	0.0864502	3.20871	
0.00244141	0.0848999	3.12151	
0.0823975	0.0843628	3.03432	
0.012207	0.084082	2.94713	
0.241089	0.0853516	2.85993	
0.0628662	0.0855286	2.77274	
0.0622559	0.0859253	2.68555	
0.108032	0.0859314	2.58092	
0.0769043	0.0866333	2.49372	
0.286255	0.0890198	2.38909	
0.143433	0.0893188	2.28446	
-0.0592041	0.0897156	2.17983	
-0.246582	0.0908691	2.0752	
-0.0305176	0.0903015	1.95313	
-0.0616455	0.0907776	1.84849	
-0.178833	0.0914673	1.74386	
-0.103149	0.0919312	1.63923	
-0.250244	0.09328	1.5346	
-0.0830078	0.0936646	1.44741	
-0.00854492	0.0935913	1.36021	
0.0408936	0.0937256	1.27302	
-0.0244141	0.0937195	1.18583	
0.000610352	0.093457	1.09863	
0.0811768	0.0939697	1.02888	
0.0616455	0.0939819	0.959124	
0.0335693	0.0933899	0.889369	
0.000610352	0.0923218	0.837054	
0.119629	0.093457	0.767299	
-0.0195313	0.0935791	0.732422	
-0.00488281	0.092865	0.680106	
-0.0610352	0.0928284	0.645229	
0.088501	0.0936951	0.610352	
0.109253	0.0933411	0.575474	
-0.0335693	0.0924622	0.540597	
0.0653076	0.0921997	0.50572	
0.0946045	0.093103	0.470843	
-0.0268555	0.0926086	0.453404	
0.0415039	0.0924072	0.418527	
0.115356	0.0925232	0.401088	
-0.0268555	0.0921021	0.366211	
0.0378418	0.0922668	0.348772	
0.03479	0.0916016	0.331334	
0.0134277	0.08974	0.313895	
0.0268555	0.0892639	0.296456	
-0.0598145	0.0882874	0.279018	
0.0463867	0.0881653	0.261579	
0.0164795	0.0875305	0.244141	
0.0292969	0.0878052	0.226702	
0.181885	0.0883423	0.209263	
-0.0714111	0.0888794	0.209263	
-0.0488281	0.0889465	0.191825	
0.0909424	0.0887329	0.191825	
0.0958252	0.0892578	0.174386	
0.0421143	0.08927	0.174386	
-0.00183105	0.0892334	0.174386	
0.0128174	0.0892151	0.174386	
0.0305176	0.0888794	0.156948	
0.10376	0.089209	0.156948	
0.032959	0.0889648	0.156948	
-0.101929	0.0899719	0.156948	
0.111694	0.0910461	0.156948	
0.0500488	0.0911438	0.156948	
0.0427246	0.0905396	0.156948	
0.00549316	0.0896545	0.156948	
0.022583	0.0893127	0.156948	
0.020752	0.087439	0.156948	
0.0360107	0.0868225	0.156948	
-0.0170898	0.0860962	0.156948	
0.0372314	0.0863647	0.156948	
0.0543213	0.0857849	0.156948	
0.012207	0.0842896	0.139509	
0.0280762	0.0831299	0.139509	
0.00305176	0.0827148	0.139509	
0.0335693	0.0819092	0.139509	
0.043335	0.0807129	0.139509	
0	0.0804321	0.139509	
0.032959	0.0797729	0.139509	
0.0830078	0.0799316	0.139509	
0.0012207	0.07854	0.139509	
0.0396729	0.077655	0.139509	
0.101318	0.0758972	0.156948	
-0.0616455	0.0755859	0.156948	
0.0183105	0.0748962	0.156948	
0.0982666	0.0745239	0.156948	
-0.0317383	0.0739563	0.156948	
-0.055542	0.0730652	0.156948	
-0.0811768	0.0721436	0.156948	
0.00610352	0.0713318	0.156948	
-0.0201416	0.0681824	0.156948	
-0.022583	0.0664978	0.156948	
-0.0738525	0.065509	0.156948	
0.0323486	0.0638489	0.156948	
-0.022583	0.0627258	0.156948	
0.000610352	0.0618835	0.156948	
0.0335693	0.0615906	0.156948	
0.00183105	0.0595947	0.156948	
0.0543213	0.0591431	0.156948	
0.00854492	0.0589478	0.156948	
0.0292969	0.058136	0.156948	
0.107422	0.0587891	0.139509	
-0.020752	0.0578613	0.139509	
-0.012207	0.057959	0.156948	
0.020752	0.0573425	0.156948	
0.00427246	0.0572632	0.156948	
0	0.0548523	0.156948	
-0.0469971	0.0546936	0.156948	
-0.00610352	0.0541321	0.156948	
-0.0152588	0.0532043	0.139509	
0.0463867	0.0528992	0.139509	
-0.0457764	0.0504944	0.139509	
0.00915527	0.0491516	0.139509	
0.0402832	0.0489624	0.139509	
0.0201416	0.046698	0.139509	
0.0262451	0.0466553	0.12207	
-0.00183105	0.0460571	0.12207	
0.0152588	0.0444214	0.12207	
0.0317383	0.0437073	0.104632	
0.0219727	0.0414246	0.104632	
-0.00427246	0.0406372	0.0871931	
0.0256348	0.0408081	0.0871931	
-0.010376	0.0405029	0.0871931	
0.0158691	0.0404175	0.0871931	
-0.0390625	0.040802	0.0871931	
0.0158691	0.0401489	0.0871931	
0.0189209	0.0397217	0.0871931	
0.0274658	0.0396606	0.0871931	
-0.00305176	0.0396851	0.0871931	
0.0384521	0.0388733	0.0871931	
-0.00732422	0.0387512	0.0871931	
0.03479	0.0390503	0.0871931	
-0.0256348	0.0386963	0.0871931	
0.00732422	0.0378845	0.0871931	
0.0134277	0.0369263	0.0697545	
0.0268555	0.0368591	0.0697545	
-0.0579834	0.0367859	0.0697545	
0.0317383	0.0361572	0.0697545	
0.0244141	0.0361328	0.0697545	
0.0250244	0.035968	0.0697545	
0.0634766	0.0354492	0.0697545	
-0.0170898	0.0353516	0.0697545	
-0.00610352	0.0350342	0.0697545	
0.0695801	0.0353821	0.0697545	
-0.00427246	0.0352905	0.0871931	
0.0323486	0.0353455	0.0871931	
0.00915527	0.0348389	0.0871931	
-0.0012207	0.0343872	0.0871931	
0.0579834	0.0348022	0.0871931	
-0.0170898	0.0346802	0.0871931	
0.03479	0.0332092	0.0697545	
0.0189209	0.0326843	0.0697545	
0.0231934	0.032428	0.0697545	
-0.00854492	0.031604	0.0697545	
-0.0012207	0.030658	0.0871931	
0.00305176	0.0302673	0.0871931	
-0.00610352	0.0303101	0.0871931	
-0.00915527	0.0302734	0.0871931	
-0.0238037	0.0302063	0.0871931	
-0.00244141	0.0291931	0.0871931	
0.0439453	0.029303	0.0871931	
-0.0512695	0.0287964	0.0871931	
0.00305176	0.02771	0.0871931	
0.0286865	0.0274963	0.0871931	
0.0360107	0.0274292	0.0871931	
0.0244141	0.0276184	0.0871931	
-0.0445557	0.0278381	0.0871931	
0.0115967	0.0277466	0.0871931	
0.03479	0.0277344	0.0871931	
-0.00854492	0.0276489	0.0871931	
-0.0286865	0.0275635	0.0871931	
0.0201416	0.0272217	0.0871931	
0.00549316	0.0271545	0.0871931	
0.0323486	0.0271973	0.0871931	
-0.0231934	0.0273987	0.0871931	
0.0579834	0.0276428	0.0871931	
0.0714111	0.0279236	0.0697545	
0.00854492	0.028009	0.0697545	
-0.0115967	0.0277954	0.0697545	
0.0384521	0.0273499	0.0697545	
0.0158691	0.0274963	0.0697545	
0.00244141	0.027124	0.0871931	
-0.012207	0.0262329	0.0871931	
-0.0616455	0.0262329	0.0871931	
0.0109863	0.0261597	0.0871931	
0.0170898	0.0253479	0.0871931	
-0.055542	0.0255859	0.0871931	
0.0256348	0.0252869	0.0871931	
0.0439453	0.0249146	0.0871931	
-0.00366211	0.0248901	0.0871931	
0.0152588	0.0248413	0.0697545	
0.0201416	0.0248169	0.0697545	
0.0256348	0.0243347	0.0697545	
0.0402832	0.0244141	0.0871931	
-0.0274658	0.0244629	0.0871931	
0.00793457	0.0245361	0.0871931	
0.0134277	0.0243347	0.0871931	
-0.00854492	0.0244019	0.0871931	
0.0384521	0.0242432	0.0871931	
-0.0311279	0.024469	0.0871931	
0.0177002	0.024353	0.0871931	
0.0634766	0.0239136	0.0871931	
0.012207	0.0238281	0.0871931	
0.00366211	0.0237427	0.0871931	
0.0335693	0.0238708	0.0871931	
0.0323486	0.0241516	0.0871931	
0.0115967	0.0242676	0.0871931	
0.00305176	0.0238281	0.0697545	
0.0219727	0.0239868	0.0697545	
0.0360107	0.0241943	0.0697545	
0.0317383	0.0240479	0.0697545	
-0.0421143	0.0240112	0.0697545	
0.0195313	0.024115	0.0697545	
0.0598145	0.0243103	0.0697545	
-0.0109863	0.0242188	0.0697545	
0.0219727	0.024176	0.0697545	
0.0335693	0.0244934	0.0697545	
-0.00610352	0.0244019	0.0871931	
0.0244141	0.0243286	0.0871931	
0.0201416	0.0243103	0.0871931	
0.0335693	0.0246033	0.0871931	
0.0140381	0.0244873	0.0697545	
-0.0244141	0.0246277	0.0697545	
0.0482178	0.0249512	0.0697545	
-0.00366211	0.0245972	0.0697545	
0.0109863	0.0245483	0.0697545	
0.0476074	0.0248352	0.0697545	
0.0238037	0.0247986	0.0697545	
0.0384521	0.0251526	0.0697545	
-0.00732422	0.0248413	0.0871931	
0.0408936	0.025177	0.0871931	
0.0311279	0.0251404	0.0871931	
-0.00305176	0.0249146	0.0871931	
-0.0158691	0.025	0.0871931	
0.0012207	0.0248779	0.0871931	
0.0286865	0.0248962	0.0871931	
-0.0134277	0.0244507	0.0871931	
0.0274658	0.024408	0.0871931	
0.0476074	0.0246399	0.0871931	
0.0372314	0.024762	0.0871931	
0.0292969	0.0244202	0.0871931	
-0.0372314	0.0246216	0.0871931	
0.0445557	0.0250061	0.0871931	
0.0311279	0.0246216	0.0871931	
-0.0311279	0.0248901	0.0871931	
-0.0311279	0.0248779	0.0871931	
-0.010376	0.0248901	0.0871931	
-0.0354004	0.0252319	0.0871931	
0.0274658	0.0249268	0.0697545	
-0.0445557	0.0252014	0.0697545	
0.0305176	0.0251587	0.0697545	
-0.00366211	0.0250061	0.0697545	
0.0408936	0.0251831	0.0871931	
-0.0219727	0.0253174	0.0871931	
0.0183105	0.0254883	0.0871931	
0.0415039	0.0258728	0.0871931	
-0.010376	0.0259155	0.0871931	
0.0183105	0.0260071	0.0871931	
-0.022583	0.0259949	0.0871931	
0.0201416	0.0261719	0.0871931	
0.0396729	0.0261292	0.0871931	
-0.0177002	0.0257935	0.0697545	
0.00366211	0.0257996	0.0697545	
0.0311279	0.025824	0.0697545	
0.0561523	0.0260254	0.0871931	
0.0280762	0.026062	0.0871931	
-0.0170898	0.0257874	0.0871931	
0.0286865	0.0259583	0.0871931	
0.0970459	0.0265808	0.0871931	
-0.0128174	0.0266235	0.0871931	
-0.012207	0.0264587	0.0871931	
0.0408936	0.0266663	0.0871931	
0.0146484	0.0267578	0.0871931	
0.0115967	0.0265503	0.0871931	
-0.0390625	0.026709	0.0871931	
-0.0012207	0.0261414	0.0871931	
0.0408936	0.0258362	0.0871931	
0.0341797	0.0260925	0.0871931	
-0.0286865	0.0262634	0.0871931	
0.0518799	0.0263977	0.0871931	
0.00976563	0.0263367	0.0871931	
0.0250244	0.0265625	0.0871931	
0.0158691	0.0265991	0.0697545	
0.0231934	0.0262146	0.0697545	
-0.0164795	0.0262695	0.0697545	
0.0152588	0.0262512	0.0697545	
-0.0213623	0.0259094	0.0697545	
-0.00427246	0.0256958	0.0697545	
-0.00671387	0.0253235	0.0871931	
0.0128174	0.025415	0.0871931	
0.020752	0.02547	0.0871931	
-0.0250244	0.0255188	0.0871931	
0.0238037	0.0255005	0.0871931	
0.0585938	0.0256836	0.0871931	
0.020752	0.0256165	0.0871931	
0.00671387	0.0256042	0.0871931	
0.0524902	0.0259949	0.0871931	
0.0128174	0.0260376	0.0871931	
0.0268555	0.0259216	0.0697545	
0.0195313	0.0258057	0.0697545	
-0.00488281	0.0256775	0.0697545	
0.00366211	0.0250793	0.0697545	
0.0213623	0.0251709	0.0697545	
-0.0524902	0.0256592	0.0697545	
0.00915527	0.025415	0.0871931	
-0.00244141	0.025116	0.0871931	
0	0.025	0.0871931	
-0.0292969	0.0252625	0.0871931	
0.022583	0.0252686	0.0871931	
-0.00488281	0.0249573	0.0871931	
0.0317383	0.0249573	0.0871931	
-0.0421143	0.0249573	0.0871931	
0.00366211	0.0247986	0.0871931	
0.0152588	0.024353	0.0871931	
-0.0189209	0.0244324	0.0871931	
0.0378418	0.0245911	0.0871931	
-0.0189209	0.0244446	0.0871931	
0.0170898	0.0245544	0.0871931	
0.0280762	0.0245911	0.0871931	
0.00610352	0.0244507	0.0871931	
0.0164795	0.0242798	0.0871931	
0.0567627	0.024707	0.0871931	
-0.0469971	0.0249329	0.0871931	
0.0421143	0.0248718	0.0871931	
0.0109863	0.0249451	0.0871931	
0.00244141	0.0248596	0.0871931	
0	0.0243835	0.0871931	
0.0701904	0.0248474	0.0871931	
-0.0109863	0.0245728	0.0871931	
0.0274658	0.0247742	0.0871931	
0.0286865	0.0246521	0.0871931	
0.00427246	0.0243835	0.0871931	
0.0231934	0.024585	0.0871931	
-0.00915527	0.0245178	0.0871931	
0.0170898	0.0246765	0.0871931	
0.0274658	0.0246643	0.0871931	
-0.0482178	0.0250122	0.0871931	
0.0158691	0.0248962	0.0871931	
0.0213623	0.0246338	0.0697545	
-0.00549316	0.0243164	0.0697545	
0.0439453	0.0244629	0.0697545	
-0.0390625	0.0244812	0.0697545	
0.0439453	0.0244751	0.0697545	
0.0305176	0.024469	0.0697545	
-0.00671387	0.0242249	0.0871931	
0.0140381	0.024054	0.0871931	
0.0238037	0.0241882	0.0871931	
-0.00793457	0.0239136	0.0871931	
0.00244141	0.0236633	0.0871931	
-0.00732422	0.023291	0.0871931	
0.0256348	0.0232422	0.0871931	
-0.0158691	0.0233643	0.0871931	
0.0366211	0.0233215	0.0871931	
-0.0170898	0.0232727	0.0871931	
0.00488281	0.0231384	0.0871931	
0.0579834	0.0233032	0.0871931	
0.0286865	0.0234863	0.0871931	
-0.0012207	0.0233154	0.0871931	
0.00366211	0.0231262	0.0871931	
0.045166	0.0233765	0.0871931	
0.0256348	0.0232361	0.0871931	
-0.0476074	0.0235352	0.0871931	
0.0170898	0.0236694	0.0871931	
0.0299072	0.0236572	0.0871931	
-0.0146484	0.0232422	0.0871931	
0.055542	0.0235168	0.0871931	
-0.00976563	0.0234436	0.0871931	
0	0.0231567	0.0871931	
0.0311279	0.0224976	0.0871931	
0.0152588	0.022522	0.0871931	
-0.00305176	0.0224304	0.0871931	
0	0.0220215	0.0871931	
-0.00183105	0.0218933	0.0871931	
0.00610352	0.0218384	0.0697545	
-0.043335	0.0218811	0.0871931	
-0.0164795	0.0220337	0.0871931	
0.020752	0.0218323	0.0871931	
0.0140381	0.0216309	0.0871931	
-0.0152588	0.0214966	0.0871931	
0.0524902	0.0215027	0.0871931	
0.00366211	0.0214417	0.0871931	
0.012207	0.0213135	0.0871931	
0.0415039	0.0215698	0.0871931	
0.0189209	0.0215271	0.0871931	
-0.0115967	0.0214783	0.0871931	
0.0543213	0.0218689	0.0871931	
-0.0189209	0.0218445	0.0871931	
-0.0012207	0.021814	0.0871931	
0.0115967	0.0218628	0.0871931	
-0.0268555	0.0220032	0.0871931	
0.0354004	0.0221497	0.0871931	
-0.0238037	0.0221375	0.0871931	
-0.010376	0.0220032	0.0871931	
0.0622559	0.0220398	0.0871931	
0.0292969	0.0221252	0.0871931	
-0.0189209	0.0222473	0.0871931	
0.0189209	0.0219116	0.0871931	
0.0262451	0.0220459	0.0871931	
0.00854492	0.0218628	0.0871931	
-0.00244141	0.0216919	0.0871931	
0.00854492	0.0217285	0.0871931	
0.0134277	0.0218262	0.0871931	
0.0201416	0.021814	0.0871931	
-0.045166	0.0217407	0.0871931	
0.0378418	0.0220276	0.0871931	
0.0152588	0.0221558	0.0871931	
0.0274658	0.0224304	0.0871931	
0.00854492	0.0222229	0.0871931	
-0.00976563	0.0220947	0.0871931	
0.00793457	0.0221252	0.0871931	
0.0469971	0.0222778	0.0871931	
-0.0408936	0.0222656	0.0871931	
-0.00671387	0.0222961	0.0871931	
0.032959	0.0224731	0.0871931	
0.00244141	0.0223083	0.0871931	
0.00915527	0.0220215	0.0871931	
-0.00915527	0.0219238	0.0871931	
0.00610352	0.021814	0.0871931	
0.0488281	0.0220215	0.0871931	
0.0128174	0.0220886	0.0871931	
-0.0164795	0.0220886	0.0871931	
0.00671387	0.0215881	0.0871931	
0.0463867	0.021582	0.0871931	
0.000610352	0.021167	0.0871931	
-0.0177002	0.0212341	0.0871931	
0.012207	0.0213318	0.0871931	
0.0256348	0.0215881	0.0871931	
0.0170898	0.0210571	0.0871931	
-0.0390625	0.0213379	0.0871931	
0.0195313	0.0212585	0.0871931	
0.0323486	0.0212952	0.0871931	
-0.00183105	0.0212708	0.0871931	
0.0628662	0.0216675	0.0871931	
-0.012207	0.021698	0.0871931	
-0.00366211	0.0215637	0.0871931	
0.0518799	0.0218079	0.0871931	
0.00793457	0.021405	0.0871931	
0.0201416	0.0214478	0.0871931	
0.0170898	0.021405	0.0871931	
-0.022583	0.0215759	0.0871931	
0.00671387	0.0212036	0.0871931	
0.000610352	0.0208191	0.0871931	
0.0311279	0.0206909	0.0871931	
0.0512695	0.0208984	0.0871931	
0.0128174	0.0209595	0.0871931	
0.0378418	0.0211975	0.0871931	
-0.0213623	0.0211731	0.0871931	
0.0195313	0.0212891	0.0871931	
0.0366211	0.0216309	0.0871931	
0.000610352	0.0215637	0.0871931	
-0.00183105	0.0213257	0.0871931	
0.010376	0.0212708	0.0871931	
-0.012207	0.0210266	0.0871931	
-0.0427246	0.021283	0.0871931	
0.0183105	0.0214172	0.0871931	
0.0183105	0.0210205	0.0871931	
-0.00244141	0.0207581	0.104632	
0.000610352	0.020752	0.104632	
-0.0384521	0.0210999	0.104632	
-0.00305176	0.0206787	0.104632	
0.0622559	0.0210449	0.0871931	
-0.0311279	0.0208801	0.0871931	
-0.0256348	0.0209656	0.0871931	
0.0280762	0.0209473	0.0871931	
0.00610352	0.0208618	0.0871931	
0.0213623	0.02052	0.0871931	
-0.0256348	0.0206787	0.0871931	
0.00976563	0.0207764	0.0871931	
0.0280762	0.0207458	0.0871931	
0.065918	0.0212524	0.0871931	
-0.0354004	0.0215759	0.0871931	
0.045166	0.0220276	0.0871931	
0.0469971	0.0224792	0.0871931	
0.0177002	0.0225952	0.0871931	
-0.020752	0.0223694	0.0871931	
0.00549316	0.0222595	0.0871931	
0.0170898	0.0222229	0.0871931	
0.00854492	0.022168	0.0871931	
-0.0195313	0.0222107	0.104632	
0.0262451	0.0219482	0.104632	
0.00183105	0.0219299	0.104632	
0.0256348	0.0220642	0.104632	
0.0134277	0.0217834	0.104632	
0.0366211	0.0219604	0.104632	
-0.00488281	0.0218933	0.104632	
0.0585938	0.021936	0.104632	
-0.00427246	0.0217896	0.104632	
-0.0305176	0.0220825	0.104632	
0.0341797	0.0223083	0.104632	
0.00427246	0.0220825	0.104632	
0.0335693	0.0220642	0.104632	
-0.0457764	0.0222839	0.104632	
0	0.0221802	0.104632	
0.0396729	0.0219543	0.104632	
0.0177002	0.0218384	0.104632	
-0.0244141	0.0218933	0.104632	
0.0134277	0.0218384	0.104632	
0.0195313	0.0217712	0.104632	
0.0238037	0.0219238	0.104632	
-0.0152588	0.022052	0.104632	
-0.00427246	0.0220093	0.104632	
0.0335693	0.0222107	0.104632	
0.0421143	0.0224304	0.104632	
-0.0268555	0.0222473	0.104632	
0	0.0218689	0.104632	
0.0170898	0.0218872	0.104632	
0.0128174	0.0217407	0.104632	
0.0439453	0.0220947	0.104632	
-0.0140381	0.0221375	0.104632	
0.0115967	0.0221741	0.104632	
0.0378418	0.0220825	0.104632	
-0.00915527	0.0217651	0.104632	
0.0292969	0.021991	0.104632	
0.032959	0.021991	0.12207	
0.00732422	0.0220398	0.12207	
-0.0244141	0.0221924	0.12207	
-0.020752	0.0223083	0.12207	
0.0164795	0.0224121	0.12207	
0.0604248	0.0225281	0.12207	
0.0421143	0.022821	0.12207	
-0.0616455	0.0232727	0.12207	
0.0354004	0.0235596	0.104632	
0.055542	0.0236511	0.104632	
0.0585938	0.024231	0.104632	
-0.0415039	0.024469	0.104632	
0	0.0243469	0.104632	
0.0231934	0.0243225	0.104632	
0.0378418	0.02453	0.104632	
-0.0354004	0.0244934	0.12207	
-0.0219727	0.0245178	0.12207	
0.0183105	0.0243774	0.12207	
0.00915527	0.0244507	0.12207	
0.00427246	0.0238647	0.12207	
-0.00488281	0.0237915	0.12207	
0.00976563	0.0238525	0.12207	
0.0421143	0.0237549	0.12207	
0.022583	0.0239014	0.12207	
-0.0219727	0.0239197	0.12207	
0.0482178	0.024231	0.12207	
0.00366211	0.0240417	0.12207	
0.0323486	0.0242981	0.104632	
-0.0170898	0.0244629	0.104632	
-0.0201416	0.024353	0.12207	
0.03479	0.0241882	0.12207	
0.00488281	0.0241089	0.12207	
-0.00549316	0.0237854	0.12207	
0.00305176	0.0236023	0.12207	
0.0219727	0.0236267	0.12207	
0.0323486	0.023584	0.12207	
0.0128174	0.0237061	0.12207	
-0.00854492	0.0237732	0.12207	
0.00427246	0.0237122	0.12207	
0.0671387	0.0242615	0.12207	
-0.0421143	0.0242554	0.12207	
0.00854492	0.0241577	0.12207	
0.00671387	0.0240417	0.104632	
0.00549316	0.0240723	0.104632	
0.0152588	0.0242188	0.104632	
-0.020752	0.0240417	0.104632	
0.00427246	0.024054	0.104632	
0.0653076	0.0240845	0.104632	
-0.0134277	0.0239075	0.104632	
-0.0256348	0.0239075	0.104632	
0.0256348	0.0238831	0.104632	
0.012207	0.0239441	0.104632	
0.0195313	0.0239258	0.12207	
-0.0256348	0.0239258	0.12207	
0.0238037	0.0240662	0.12207	
0.0183105	0.0239685	0.104632	
0.0323486	0.0236328	0.104632	
-0.0390625	0.0236694	0.104632	
0.022583	0.0234436	0.104632	
0.0390625	0.0233643	0.104632	
0	0.0231873	0.104632	
0.020752	0.0231873	0.104632	
-0.0622559	0.0237549	0.104632	
0.00854492	0.0236694	0.104632	
0.0323486	0.0239075	0.104632	
-0.000610352	0.0237183	0.104632	
-0.0274658	0.0237305	0.104632	
-0.00305176	0.0237427	0.104632	
0.00427246	0.0235291	0.104632	
0.0378418	0.0237732	0.104632	
-0.0238037	0.023645	0.104632	
0.0109863	0.0237061	0.104632	
0.032959	0.0234497	0.104632	
0.0341797	0.0237488	0.104632	
-0.00183105	0.0234619	0.104632	
0.0262451	0.0233826	0.104632	
0.0152588	0.0234924	0.104632	
0.0390625	0.0235474	0.104632	
-0.00610352	0.0231506	0.104632	
0.0170898	0.0233215	0.104632	
0.010376	0.0230286	0.104632	
0.0134277	0.0229858	0.104632	
-0.0177002	0.0229187	0.12207	
0.0274658	0.0230591	0.12207	
0.00976563	0.0229614	0.12207	
0.0164795	0.0228882	0.12207	
-0.00244141	0.02276	0.12207	
-0.00427246	0.02276	0.12207	
0.0128174	0.0225525	0.12207	
0.0341797	0.0224731	0.12207	
-0.00244141	0.022229	0.12207	
0.00366211	0.0222656	0.12207	
0.022583	0.0223206	0.12207	
-0.00732422	0.0222656	0.12207	
0.0378418	0.0222046	0.104632	
-0.0177002	0.0222412	0.104632	
0.0158691	0.0222839	0.104632	
0.0256348	0.0221619	0.104632	
0.00366211	0.0221069	0.104632	
0.00610352	0.021875	0.104632	
0.0158691	0.0217041	0.104632	
0.012207	0.0217529	0.104632	
0.020752	0.0217163	0.104632	
-0.00671387	0.0215759	0.12207	
0.0146484	0.0215576	0.12207	
0.00915527	0.0210449	0.12207	
0.0177002	0.0208008	0.12207	
-0.0146484	0.0203308	0.12207	
0.0244141	0.0202209	0.12207	
-0.00488281	0.0197144	0.12207	
-0.00610352	0.0191895	0.12207	
0.0299072	0.0190735	0.12207	
0.00427246	0.0191162	0.104632	
-0.00427246	0.018927	0.104632	
0.0262451	0.018811	0.104632	
-0.0268555	0.0187256	0.104632	
-0.00305176	0.0185364	0.104632	
0.0561523	0.0189148	0.104632	
-0.0286865	0.0191101	0.104632	
0.00976563	0.019165	0.104632	
-0.0189209	0.0193054	0.104632	
0.0177002	0.0193848	0.104632	
0.0231934	0.0191956	0.104632	
0.0152588	0.0191223	0.104632	
0.0140381	0.019043	0.104632	
-0.00366211	0.0185974	0.104632	
0.00305176	0.0185913	0.104632	
0.0415039	0.0186829	0.12207	
-0.010376	0.0186157	0.12207	
0.0128174	0.0185425	0.104632	
-0.00488281	0.0182434	0.104632	
0.0231934	0.0184265	0.104632	
-0.00854492	0.018457	0.104632	
0.0250244	0.0186768	0.104632	
0.010376	0.0185608	0.104632	
0.00244141	0.0182617	0.104632	
0.0408936	0.0185425	0.104632	
-0.00854492	0.0185425	0.104632	
0.00610352	0.0185608	0.104632	
0.0476074	0.0183655	0.104632	
-0.0262451	0.0182068	0.12207	
0.0439453	0.0185608	0.12207	
0.00549316	0.0185486	0.12207	
-0.0311279	0.0188049	0.12207	
0.0506592	0.0191589	0.12207	
-0.0238037	0.0191895	0.12207	
0.0152588	0.0192993	0.12207	
0.0286865	0.0189331	0.12207	
-0.022583	0.0190247	0.104632	
-0.012207	0.0188904	0.104632	
0.0384521	0.0190186	0.104632	
-0.00976563	0.0189941	0.104632	
0.010376	0.0189026	0.104632	
-0.0213623	0.0188599	0.104632	
0	0.0186218	0.104632	
0.020752	0.0186462	0.104632	
-0.00366211	0.0183594	0.104632	
-0.0286865	0.0182556	0.104632	
0.0286865	0.0183167	0.104632	
0.0445557	0.0183716	0.104632	
0.0268555	0.0186401	0.104632	
-0.00549316	0.0184875	0.12207	
0.010376	0.0179688	0.12207	
0.0183105	0.0180664	0.104632	
0.0427246	0.0181702	0.104632	
0	0.0181641	0.104632	
-0.0268555	0.018158	0.104632	
0.00976563	0.0182251	0.104632	
0.0146484	0.0183289	0.104632	
0.0115967	0.0180664	0.104632	
-0.0372314	0.0182007	0.104632	
0.0164795	0.0182556	0.104632	
0.0585938	0.018512	0.104632	
0.0280762	0.0184509	0.12207	
-0.0299072	0.0187317	0.12207	
0.0390625	0.0188599	0.12207	
0.0219727	0.018927	0.12207	
0.0109863	0.0186462	0.104632	
-0.00854492	0.0186707	0.104632	
-0.012207	0.0186218	0.104632	
0.0146484	0.0186646	0.104632	
0.0280762	0.018811	0.104632	
-0.0463867	0.0190979	0.104632	
0.0146484	0.0189697	0.104632	
0.00549316	0.018927	0.104632	
0.0152588	0.0189148	0.104632	
0.0244141	0.0191345	0.104632	
-0.0219727	0.0193115	0.104632	
0.0177002	0.0193604	0.104632	
0.0445557	0.0194641	0.104632	
-0.0274658	0.0197144	0.104632	
0.0128174	0.0198059	0.104632	
0.00793457	0.0196594	0.104632	
0.0268555	0.0198547	0.104632	
0.0445557	0.0199219	0.104632	
-0.0366211	0.0201111	0.104632	
-0.0152588	0.020105	0.104632	
0.0427246	0.0202759	0.104632	
0.0372314	0.0206116	0.104632	
-0.0152588	0.0207031	0.104632	
0.012207	0.0206665	0.104632	
0.000610352	0.0205505	0.104632	
-0.00488281	0.0203918	0.104632	
0.0286865	0.0206116	0.104632	
-0.00854492	0.0205505	0.104632	
0.012207	0.0205811	0.104632	
0.0146484	0.0205505	0.104632	
-0.0286865	0.0206909	0.104632	
0.0262451	0.0207092	0.104632	
0.0238037	0.0208984	0.104632	
0	0.0208374	0.104632	
0.00366211	0.020575	0.104632	
0.0012207	0.0205444	0.104632	
0.0158691	0.0206604	0.104632	
0.0366211	0.0207642	0.104632	
-0.0128174	0.0206238	0.104632	
0.00549316	0.0206482	0.104632	
0.0317383	0.0204041	0.104632	
-0.0128174	0.0202454	0.104632	
0.00854492	0.0202332	0.104632	
-0.00610352	0.020105	0.104632	
0.0292969	0.0202209	0.104632	
-0.00427246	0.0200317	0.104632	
0.0115967	0.0199951	0.104632	
0.00793457	0.0199341	0.104632	
0.045166	0.0203491	0.12207	
0.0140381	0.020459	0.12207	
0.0115967	0.0201599	0.12207	
0.0311279	0.0203674	0.12207	
-0.00610352	0.0203003	0.104632	
0.00244141	0.0202759	0.104632	
0.0366211	0.0204102	0.104632	
-0.0286865	0.0206116	0.104632	
0.0219727	0.0205811	0.104632	
0.020752	0.0206848	0.104632	
-0.0286865	0.0209473	0.104632	
0.0299072	0.0208374	0.104632	
0	0.020752	0.104632	
0.0170898	0.0208618	0.104632	
0.0622559	0.0210083	0.104632	
-0.022583	0.0209717	0.104632	
-0.00854492	0.0206177	0.104632	
0.00732422	0.020636	0.104632	
0.0128174	0.0204529	0.104632	
0.0250244	0.0201965	0.104632	
-0.010376	0.0200623	0.104632	
0.0170898	0.0200806	0.104632	
0.0158691	0.0199524	0.104632	
0.0152588	0.0198792	0.104632	
-0.0109863	0.0198669	0.104632	
0.0323486	0.0198059	0.104632	
0.0311279	0.0200195	0.104632	
0.00183105	0.0199341	0.104632	
-0.0128174	0.0198486	0.104632	
0.0134277	0.0199829	0.104632	
0.0457764	0.0202332	0.104632	
-0.0195313	0.0203918	0.104632	
-0.0231934	0.0203369	0.104632	
0.00793457	0.0201294	0.104632	
0.0378418	0.0200623	0.104632	
0.0183105	0.0199768	0.104632	
-0.0109863	0.0200317	0.104632	
-0.0360107	0.0202881	0.12207	
0.0170898	0.0202759	0.12207	
0.0531006	0.0203796	0.12207	
0.00427246	0.0204224	0.12207	
-0.00183105	0.0201721	0.12207	
0.0408936	0.0204834	0.104632	
0.0158691	0.0204956	0.104632	
-0.0109863	0.0204895	0.104632	
-0.00244141	0.0201416	0.104632	
0.0140381	0.0201172	0.104632	
0.0341797	0.019873	0.104632	
0.00427246	0.019635	0.104632	
-0.0140381	0.0194763	0.104632	
0.0012207	0.0190979	0.104632	
0.0262451	0.0191406	0.104632	
0.0134277	0.019165	0.104632	
0.000610352	0.0190857	0.12207	
0.0158691	0.0191223	0.12207	
0.0250244	0.0192261	0.12207	
0.00854492	0.0190308	0.12207	
-0.00976563	0.0186646	0.12207	
0.010376	0.0186218	0.12207	
0.0250244	0.0188171	0.104632	
0.0115967	0.0187805	0.104632	
0.0213623	0.01875	0.104632	
-0.0134277	0.0186646	0.104632	
0.000610352	0.0184937	0.104632	
0.0708008	0.0187561	0.104632	
0.012207	0.0186035	0.104632	
-0.0299072	0.0187744	0.104632	
0.0201416	0.0188965	0.104632	
0.0598145	0.0192261	0.104632	
0.0427246	0.0192078	0.12207	
-0.0421143	0.0192627	0.12207	
-0.0146484	0.0192566	0.12207	
0.0396729	0.0192261	0.104632	
0.043335	0.0192871	0.104632	
-0.0549316	0.0196838	0.104632	
0.00427246	0.0196045	0.104632	
0.0201416	0.0197998	0.104632	
0.00732422	0.0198242	0.104632	
-0.0109863	0.0196472	0.104632	
-0.0128174	0.0196899	0.104632	
0.0274658	0.0198425	0.104632	
0.0311279	0.0200073	0.104632	
-0.0012207	0.0197327	0.104632	
-0.0238037	0.0197083	0.104632	
0.0323486	0.0197937	0.104632	
0.0292969	0.0200867	0.104632	
-0.00366211	0.0200867	0.104632	
-0.0335693	0.0204102	0.104632	
0.00854492	0.0203369	0.104632	
0.0396729	0.0203674	0.104632	
0.00305176	0.0202698	0.104632	
-0.0366211	0.0205811	0.104632	
0.0476074	0.0207397	0.104632	
0.0189209	0.0208008	0.104632	
-0.00793457	0.0207947	0.104632	
0.0164795	0.0208984	0.104632	
-0.00610352	0.0206665	0.104632	
0.0335693	0.0209595	0.104632	
0.0506592	0.0213501	0.104632	
-0.0238037	0.0215088	0.104632	
0.0231934	0.0212891	0.104632	
-0.0177002	0.0213257	0.104632	
0.0311279	0.021521	0.104632	
0.0152588	0.0213623	0.104632	
-0.0195313	0.0214966	0.104632	
0.0299072	0.0217712	0.104632	
0.0463867	0.0218689	0.104632	
-0.0341797	0.0219238	0.104632	
-0.010376	0.0218079	0.104632	
0.0390625	0.021991	0.104632	
0.0231934	0.021936	0.104632	
0.0341797	0.0219788	0.104632	
-0.0372314	0.0223511	0.104632	
0.0299072	0.0224792	0.104632	
0.043335	0.02229	0.12207	
0.00793457	0.0221436	0.12207	
-0.0128174	0.0221863	0.12207	
0.0299072	0.0224121	0.12207	
0.0439453	0.0227234	0.12207	
0.00610352	0.0225342	0.12207	
-0.0231934	0.0226624	0.104632	
0.00854492	0.0225769	0.104632	
0.00915527	0.0225098	0.104632	
0.0335693	0.0226929	0.104632	
-0.0292969	0.022876	0.104632	
-0.00610352	0.0226135	0.104632	
0	0.0223022	0.104632	
0.022583	0.0225098	0.104632	
0.0299072	0.0226807	0.104632	
-0.0195313	0.0227417	0.104632	
-0.0158691	0.0224426	0.104632	
0.043335	0.0226807	0.104632	
-0.00671387	0.0225159	0.104632	
0.0183105	0.0226196	0.104632	
0.0012207	0.0222534	0.104632	
-0.0164795	0.0222351	0.104632	
0.0360107	0.0224854	0.104632	
-0.032959	0.0224548	0.104632	
0.00854492	0.0223694	0.104632	
0.0201416	0.0220398	0.104632	
0.0152588	0.0221497	0.104632	
0.0201416	0.0223328	0.104632	
-0.012207	0.0220459	0.104632	
0.00915527	0.0219788	0.104632	
0.0256348	0.0221252	0.104632	
-0.0244141	0.022345	0.104632	
-0.0201416	0.022406	0.104632	
0.0390625	0.0224548	0.12207	
0.0134277	0.0225464	0.12207	
-0.0604248	0.0230103	0.12207	
0.00671387	0.0230652	0.12207	
0.0140381	0.0229431	0.12207	
0.043335	0.0232422	0.12207	
0.0140381	0.0233765	0.104632	
0.0262451	0.0234802	0.104632	
0.0311279	0.0235413	0.104632	
0.0292969	0.0237488	0.104632	
0.00793457	0.0237305	0.104632	
0.043335	0.0240601	0.104632	
0.00244141	0.0238342	0.104632	
0.0299072	0.0240173	0.104632	
0.00976563	0.0239014	0.104632	
-0.00732422	0.0238403	0.104632	
0.00610352	0.0238953	0.104632	
-0.0128174	0.0233154	0.104632	
0.0463867	0.0236572	0.104632	
-0.0189209	0.0235474	0.104632	
0.0183105	0.0235291	0.104632	
0.00244141	0.0229553	0.104632	
-0.00854492	0.0226135	0.104632	
-0.0128174	0.0223206	0.104632	
-0.00976563	0.0222717	0.104632	
0.0323486	0.0221985	0.104632	
0.0250244	0.0220154	0.104632	
-0.0256348	0.0217224	0.104632	
0.0140381	0.0218201	0.104632	
0.0146484	0.0217651	0.104632	
0.0390625	0.0220825	0.104632	
0.0421143	0.0223938	0.12207	
-0.0463867	0.0227295	0.12207	
0.0292969	0.0227478	0.104632	
0.055542	0.0229919	0.104632	
0.022583	0.0232056	0.104632	
-0.0274658	0.0232422	0.104632	
-0.0317383	0.0232361	0.104632	
0.00305176	0.0229736	0.104632	
0.0463867	0.0234009	0.104632	
-0.0213623	0.0232788	0.104632	
0.00244141	0.0232178	0.104632	
0.0262451	0.0230835	0.104632	
0.00549316	0.0231079	0.104632	
-0.00793457	0.022821	0.104632	
0.0463867	0.0228088	0.104632	
0.0390625	0.0230103	0.104632	
0.0201416	0.0231323	0.104632	
-0.0341797	0.0233093	0.104632	
-0.0219727	0.023468	0.104632	
0.045166	0.023584	0.104632	
0.0305176	0.0233826	0.104632	
-0.0299072	0.0234436	0.12207	
0.00732422	0.0232849	0.12207	
0.0463867	0.0235718	0.12207	
0.00793457	0.0233398	0.12207	
0.0537109	0.0237244	0.12207	
0.00366211	0.0235657	0.12207	
-0.00915527	0.0233582	0.104632	
0.0445557	0.0233398	0.104632	
-0.022583	0.0232239	0.104632	
-0.045166	0.0235718	0.104632	
-0.00976563	0.0232788	0.104632	
0.0909424	0.0239563	0.104632	
0.00915527	0.0237061	0.104632	
-0.067749	0.0240112	0.104632	
0.00244141	0.0237366	0.104632	
0.205688	0.0253601	0.12207	
0.0494385	0.0257751	0.12207	
0.020752	0.0258545	0.12207	
0.237427	0.0279297	0.12207	
0.0830078	0.0283203	0.12207	
0.0665283	0.0289246	0.12207	
0.0445557	0.0291382	0.12207	
-0.0592041	0.0296448	0.12207	
0.0891113	0.0304443	0.12207	
-0.0427246	0.0305359	0.12207	
-0.0744629	0.0309875	0.12207	
-0.106201	0.0319885	0.139509	
-0.0439453	0.032428	0.139509	
-0.126343	0.0334656	0.156948	
-0.0701904	0.0338684	0.174386	
-0.0543213	0.0342163	0.174386	
-0.0335693	0.0343933	0.191825	
0.00305176	0.0339905	0.209263	
0.0152588	0.0340759	0.226702	
-0.0720215	0.034613	0.244141	
-0.0537109	0.0351379	0.261579	
-0.0494385	0.0354675	0.279018	
0.126343	0.0363708	0.296456	
0.0335693	0.036377	0.313895	
0.108643	0.0373779	0.331334	
0.00915527	0.0372681	0.348772	
-0.0738525	0.037854	0.366211	
0.0531006	0.0381836	0.38365	
0.234375	0.0404053	0.418527	
-0.0231934	0.0405457	0.435965	
0.0201416	0.0404907	0.453404	
-0.0402832	0.0406494	0.470843	
0.0195313	0.0406433	0.50572	
0.0280762	0.0405334	0.523158	
0.010376	0.0405029	0.558036	
0.0244141	0.0401428	0.592913	
0.0592041	0.0406677	0.610352	
0.0732422	0.0412598	0.645229	
-0.0537109	0.0413635	0.697545	
-0.0561523	0.0417847	0.732422	
0.0543213	0.0420654	0.784738	
0.0994873	0.042749	0.819615	
-0.100708	0.0434631	0.871931	
0.0201416	0.0435852	0.924247	
-0.213013	0.045282	0.976563	
-0.128784	0.0465454	1.04632	
0.0250244	0.0464966	1.11607	
-0.178833	0.0481873	1.18583	
-0.0402832	0.0485168	1.25558	
-0.0769043	0.0492249	1.34277	
-0.022583	0.0493225	1.42997	
0.0292969	0.0491516	1.51716	
-0.0958252	0.0499207	1.58691	
0.0964355	0.0507019	1.67411	
0.0823975	0.0515015	1.7613	
0.078125	0.0521973	1.83105	
0.00427246	0.0521118	1.91825	
0.120239	0.0532166	2.00544	
0.187378	0.0547668	2.0752	
0.0708008	0.0552246	2.16239	
0.0549316	0.0555176	2.24958	
-0.0500488	0.0558777	2.31934	
0.102539	0.0567566	2.38909	
0.0305176	0.0566711	2.45884	
-0.0311279	0.0565613	2.5286	
0.0592041	0.0566895	2.58092	
-0.113525	0.0575317	2.63323	
-0.00671387	0.0570435	2.68555	
0.00305176	0.0568481	2.73786	
0.0354004	0.0569275	2.77274	
0.055542	0.0571655	2.80762	
0.0836182	0.0579712	2.84249	
-0.000610352	0.0575134	2.87737	
-0.0317383	0.0576172	2.91225	
0.0726318	0.0583191	2.94713	
0.15686	0.0596252	2.982	
0.150757	0.0610779	3.01688	
-0.0213623	0.0612122	3.05176	
-0.0469971	0.0612183	3.10407	
0.0848389	0.061676	3.15639	
0.0396729	0.0618713	3.19127	
-0.00793457	0.0616089	3.24358	
-0.0445557	0.0618347	3.2959	
-0.0524902	0.061908	3.34821	
-0.03479	0.0619507	3.38309	
0.0012207	0.0616638	3.43541	
-0.0592041	0.0621826	3.47028	
0.043335	0.0621521	3.50516	
0.217285	0.0642456	3.5226	
-0.0177002	0.0638855	3.55748	
-0.196533	0.0658142	3.57492	
0.12146	0.0669373	3.59235	
0.183105	0.0683228	3.60979	
-0.0689697	0.0687866	3.60979	
-0.0805664	0.0691406	3.62723	
0.0848389	0.0698914	3.64467	
0.0170898	0.0691528	3.66211	
0.0854492	0.0699158	3.67955	
-0.140381	0.0706421	3.69699	
-0.0445557	0.0710632	3.73186	
0.129395	0.0703003	3.7493	
0.124512	0.071051	3.76674	
0.00854492	0.070929	3.78418	
-0.115967	0.0697144	3.80162	
0.148315	0.0703674	3.81906	
0.0634766	0.0703369	3.8365	
0.0128174	0.0700195	3.87137	
0.0750732	0.0701782	3.88881	
-0.0445557	0.0697327	3.92369	
-0.198364	0.0712891	3.94113	
-0.100098	0.0715454	3.976	
-0.0695801	0.0711792	4.01088	
-0.0567627	0.0713074	4.04576	
-0.0354004	0.0703979	4.08064	
0.00305176	0.0697266	4.11551	
0	0.0691833	4.16783	
-0.0634766	0.0694824	4.20271	
0.00915527	0.0695435	4.23758	
0.0579834	0.0699707	4.2899	
0.0482178	0.0697327	4.32478	
0.234985	0.0715454	4.35965	
0.0164795	0.0712158	4.39453	
-0.24231	0.0723755	4.42941	
-0.00915527	0.0721313	4.46429	
0.177002	0.0728149	4.49916	
0.133057	0.074054	4.5166	
-0.126953	0.074585	4.55148	
-0.15564	0.0756104	4.58636	
0.0787354	0.074054	4.62123	
0.00732422	0.0738953	4.65611	
-0.0146484	0.0738403	4.69099	
0.157471	0.0750122	4.72586	
0	0.0748169	4.76074	
-0.0653076	0.0751892	4.79562	
-0.012207	0.0752075	4.8305	
0.0109863	0.0750732	4.86537	
0.0317383	0.0747986	4.88281	
-0.0439453	0.0745056	4.91769	
-0.265503	0.0766235	4.97001	
-0.00793457	0.0761414	5.00488	
-0.0756836	0.076355	5.03976	
0.00732422	0.0754333	5.09208	
0.0549316	0.0749756	5.14439	
-0.00976563	0.0748718	5.21415	
0.112305	0.0738647	5.26646	
0.269775	0.0752747	5.31878	
-0.0567627	0.075592	5.37109	
0.0860596	0.0746643	5.42341	
0.0274658	0.0745361	5.45829	
0.123901	0.0750061	5.49316	
0.00976563	0.0748779	5.5106	
-0.108643	0.0756714	5.52804	
-0.0683594	0.0753967	5.56292	
0.00793457	0.0745117	5.56292	
0.0317383	0.0740051	5.58036	
-0.189819	0.0751221	5.5978	
-0.0695801	0.0757751	5.61523	
0.0476074	0.0750488	5.63267	
0.0756836	0.0739319	5.63267	
0.0878906	0.0741028	5.65011	
0.166016	0.0752136	5.66755	
0.00732422	0.0747864	5.66755	
0.00366211	0.0737976	5.68499	
0.197144	0.0754639	5.68499	
0.15625	0.0767151	5.70243	
-0.115967	0.0772827	5.70243	
-0.0585938	0.0767334	5.71987	
-0.0830078	0.0774963	5.71987	
-0.0354004	0.0778198	5.7373	
-0.169067	0.0791565	5.7373	
-0.0610352	0.0792114	5.75474	
-0.0231934	0.0786072	5.75474	
-0.032959	0.0789307	5.77218	
0.0701904	0.0793152	5.77218	
0.0170898	0.0787598	5.78962	
0.200806	0.0791992	5.78962	
0.0158691	0.0778503	5.78962	
0.0189209	0.0778259	5.80706	
0.0952148	0.0783081	5.80706	
-0.110474	0.0785645	5.80706	
0.13855	0.0795532	5.8245	
-0.0427246	0.0799011	5.8245	
-0.0244141	0.0796997	5.8245	
-0.117798	0.0803528	5.84194	
0.00610352	0.0800659	5.84194	
-0.0396729	0.0804504	5.85938	
0.100098	0.0808594	5.85938	
-0.0378418	0.0808044	5.85938	
0.0720215	0.0793518	5.87681	
0.0787354	0.0799622	5.87681	
-0.15625	0.0795593	5.87681	
0.0604248	0.078949	5.89425	
0.00244141	0.0771423	5.91169	
-0.0872803	0.0773254	5.91169	
-0.103149	0.0775513	5.92913	
-0.098877	0.0776917	5.94657	
0.145264	0.0789734	5.96401	
-0.131836	0.0794373	5.98145	
0.00610352	0.0780945	5.99888	
0.112915	0.0787781	6.01632	
0.0402832	0.077887	6.03376	
0.055542	0.0771973	6.0512	
-0.088501	0.0779968	6.06864	
-0.00305176	0.0768677	6.08608	
0.0695801	0.0760803	6.10352	
-0.0537109	0.0759827	6.10352	
0.0567627	0.0764221	6.12095	
0.0653076	0.0763245	6.13839	
-0.0152588	0.0760315	6.13839	
-0.012207	0.0741699	6.15583	
0.175781	0.0749268	6.15583	
0.122681	0.0754578	6.17327	
0.0628662	0.0755188	6.17327	
-0.0891113	0.0760559	6.19071	
0.0592041	0.0766174	6.19071	
0.0292969	0.0769104	6.20815	
-0.147705	0.0777527	6.20815	
-0.0012207	0.0776733	6.22559	
-0.0146484	0.07724	6.22559	
-0.0561523	0.0773193	6.22559	
0.0384521	0.075354	6.24302	
0.0494385	0.0756836	6.24302	
-0.176392	0.0750244	6.24302	
0.020752	0.0751404	6.24302	
0.088501	0.0742554	6.24302	
0.0469971	0.0733948	6.24302	
0.0738525	0.0728638	6.24302	
-0.102539	0.0723328	6.24302	
-0.0622559	0.072168	6.24302	
0.045166	0.0725464	6.24302	
0.00244141	0.0724243	6.24302	
0.00793457	0.070929	6.24302	
-0.0732422	0.0716614	6.24302	
-0.0158691	0.071167	6.24302	
0.0585938	0.0716309	6.24302	
-0.0537109	0.0720581	6.24302	
0.131226	0.073053	6.24302	
0.0689697	0.0733032	6.24302	
0.0592041	0.0712402	6.24302	
0.065918	0.0718201	6.24302	
0.0250244	0.0713135	6.24302	
-0.0335693	0.0715759	6.24302	
0.0463867	0.0714905	6.24302	
0.0280762	0.0716736	6.22559	
0.117188	0.0717224	6.22559	
0.0958252	0.0699829	6.20815	
-0.275879	0.0721741	6.20815	
0.0500488	0.071814	6.19071	
0.0177002	0.0717163	6.17327	
-0.0805664	0.071283	6.15583	
0.0323486	0.0715088	6.15583	
-0.105591	0.0714783	6.13839	
-0.125732	0.072052	6.13839	
-0.00183105	0.071991	6.12095	
-0.0469971	0.0721436	6.10352	
-0.0250244	0.0704956	6.10352	
0.0830078	0.0706299	6.08608	
0.0671387	0.0708252	6.08608	
0.130005	0.0713684	6.06864	
0.145264	0.0719421	6.0512	
0.0805664	0.0710876	6.03376	
0.163574	0.0726501	6.01632	
-0.0689697	0.0733032	5.99888	
0.0384521	0.0717163	5.99888	
0.172729	0.0718811	5.98145	
-0.100098	0.0717224	5.96401	
-0.0262451	0.0713989	5.94657	
-0.197144	0.0725403	5.94657	
-0.0939941	0.0731262	5.92913	
0.0268555	0.0717041	5.92913	
-0.0012207	0.071106	5.92913	
-0.0982666	0.0718567	5.92913	
0.0787354	0.0723145	5.92913	
0.045166	0.0720642	5.92913	
0.12085	0.0731018	5.92913	
-0.105591	0.0721497	5.91169	
-0.00854492	0.0720764	5.91169	
0.00183105	0.0719055	5.91169	
0.429688	0.0752502	5.91169	
-0.29541	0.0770996	5.91169	
-0.115356	0.0768677	5.91169	
0.045166	0.0768921	5.91169	
-0.0695801	0.0773438	5.91169	
-0.0567627	0.0767334	5.91169	
-0.0457764	0.0771301	5.92913	
0.0305176	0.0770386	5.92913	
-0.0610352	0.0766479	5.92913	
-0.0292969	0.0765625	5.92913	
0.116577	0.0770081	5.92913	
0.0616455	0.0768372	5.94657	
0.0402832	0.0756775	5.94657	
0.150146	0.0765747	5.94657	
-0.0170898	0.0767212	5.96401	
0.012207	0.0759705	5.96401	
-0.0250244	0.0751892	5.98145	
-0.0695801	0.0748962	5.98145	
0.00854492	0.0735291	5.99888	
-0.122681	0.0734375	6.01632	
0.0189209	0.0735657	6.03376	
-0.0738525	0.073175	6.0512	
-0.0317383	0.0730896	6.0512	
0.111084	0.073645	6.06864	
0.00610352	0.072821	6.08608	
0.0543213	0.0733337	6.08608	
0.0823975	0.0734619	6.10352	
0.151978	0.0744446	6.10352	
0.0860596	0.0747375	6.10352	
-0.0933838	0.0750183	6.12095	
-0.0604248	0.07547	6.12095	
0.0421143	0.075769	6.12095	
0.00366211	0.0740479	6.12095	
-0.162964	0.0744507	6.12095	
0.0531006	0.074353	6.12095	
-0.0244141	0.0737061	6.12095	
0.0561523	0.0736755	6.12095	
-0.0152588	0.0735352	6.12095	
0.0860596	0.0729187	6.12095	
0.27832	0.0756897	6.12095	
-0.00854492	0.0756287	6.12095	
-0.0799561	0.0758667	6.12095	
0.142822	0.0769104	6.12095	
0.269165	0.0791077	6.12095	
0.0408936	0.0777527	6.12095	
-0.244751	0.0799927	6.12095	
0.175781	0.0808655	6.12095	
0.129395	0.0816895	6.12095	
-0.0622559	0.0815735	6.12095	
-0.265503	0.0832031	6.12095	
-0.0500488	0.0830811	6.12095	
-0.0231934	0.0828613	6.10352	
-0.136108	0.084198	6.12095	
-0.0219727	0.0843384	6.12095	
-0.10498	0.0846558	6.12095	
0.0488281	0.0849854	6.12095	
0.0482178	0.0848816	6.12095	
0.0457764	0.0848022	6.13839	
0.00732422	0.0835632	6.13839	
0.065918	0.0835327	6.13839	
0.0354004	0.0832947	6.15583	
-0.0671387	0.0833069	6.17327	
-0.115356	0.0842102	6.17327	
0.055542	0.0844299	6.19071	
0.0787354	0.0847534	6.20815	
0.0408936	0.0848816	6.20815	
0.0317383	0.0840271	6.22559	
0.142822	0.0844971	6.22559	
0.0665283	0.0824036	6.22559	
0.0408936	0.082312	6.24302	
0.0189209	0.0823242	6.24302	
0.133057	0.0828491	6.24302	
-0.0750732	0.0832764	6.24302	
-0.0402832	0.0826233	6.24302	
-0.0170898	0.0815369	6.24302	
-0.0231934	0.0817505	6.24302	
-0.158081	0.0828613	6.24302	
-0.0695801	0.0833069	6.22559	
0.0360107	0.0828369	6.22559	
0.192871	0.0840942	6.22559	
0.0524902	0.0833191	6.22559	
-0.0177002	0.0820435	6.22559	
0.127563	0.0825134	6.22559	
0.125732	0.082135	6.22559	
0.180664	0.083252	6.22559	
0.112305	0.0839905	6.22559	
-0.0701904	0.0829651	6.24302	
-0.122681	0.0831909	6.24302	
-0.115967	0.0840881	6.24302	
0.0695801	0.0828125	6.24302	
0.0341797	0.0822144	6.26046	
-0.151367	0.0834595	6.26046	
-0.166626	0.0851135	6.26046	
-0.134888	0.0854797	6.2779	
0.0445557	0.0851379	6.2779	
-0.00854492	0.0847717	6.29534	
-0.171509	0.0852783	6.29534	
-0.0598145	0.0848206	6.31278	
0.0170898	0.084906	6.33022	
-0.0402832	0.0852905	6.33022	
0	0.0809937	6.34766	
-0.0317383	0.0783569	6.34766	
0.0439453	0.0776428	6.36509	
0.0280762	0.0774719	6.38253	
0.13855	0.0781616	6.38253	
-0.00854492	0.0776794	6.39997	
0.151978	0.0787415	6.39997	
-0.0762939	0.0791992	6.39997	
0.144653	0.0800354	6.41741	
0.147705	0.0812195	6.41741	
0.12207	0.0812744	6.41741	
-0.0170898	0.0808289	6.41741	
0.12085	0.0816345	6.39997	
0.0500488	0.0806335	6.39997	
0.022583	0.0806885	6.39997	
0.0775146	0.0813416	6.39997	
0.0964355	0.0820557	6.39997	
-0.205688	0.0834167	6.39997	
-0.0384521	0.0837158	6.39997	
-0.0665283	0.0831543	6.41741	
0.0415039	0.0833801	6.41741	
-0.247192	0.0851135	6.41741	
-0.0994873	0.085791	6.43485	
0.0238037	0.0849182	6.45229	
-0.0689697	0.0855469	6.45229	
0.0494385	0.085498	6.46973	
0.0506592	0.0851807	6.48717	
0.170288	0.0853638	6.5046	
0.553589	0.0900391	6.52204	
-0.217896	0.0912842	6.53948	
-0.141602	0.0920959	6.53948	
0.203857	0.0937134	6.55692	
0.0268555	0.0939453	6.57436	
-0.0805664	0.0931213	6.57436	
-0.252075	0.0951111	6.5918	
-0.241699	0.0972839	6.60924	
-0.216675	0.0988892	6.60924	
-0.045166	0.0991882	6.62667	
-0.078125	0.0991089	6.64411	
0.0561523	0.0968872	6.66155	
-0.0524902	0.0973267	6.67899	
0.0213623	0.0967407	6.69643	
0.255127	0.0978638	6.69643	
0.153198	0.0967041	6.71387	
-0.0671387	0.0969666	6.73131	
0.020752	0.0947266	6.73131	
0.0860596	0.0938293	6.74874	
0.10498	0.0935852	6.74874	
0.108643	0.0940491	6.74874	
-0.0366211	0.0917603	6.74874	
-0.00305176	0.0912903	6.74874	
-0.0219727	0.0912781	6.76618	
0.0500488	0.0904175	6.76618	
0.192261	0.0921204	6.76618	
-0.0604248	0.0916748	6.76618	
0.0250244	0.0914368	6.76618	
0.321045	0.094165	6.76618	
-0.177612	0.0954834	6.76618	
-0.185547	0.0972656	6.76618	
0.0970459	0.0975769	6.76618	
-0.0305176	0.0975281	6.76618	
-0.195313	0.0988098	6.76618	
-0.202026	0.0996765	6.76618	
-0.0921631	0.100043	6.76618	
-0.0286865	0.0995422	6.76618	
-0.0628662	0.099762	6.78362	
-0.0628662	0.100073	6.78362	
0.00732422	0.0987183	6.78362	
0.109863	0.0991516	6.78362	
0.0170898	0.0989136	6.78362	
0.20752	0.1008	6.78362	
0.0250244	0.0997192	6.78362	
0.0848389	0.0998169	6.78362	
0.140381	0.100818	6.78362	
0.180054	0.102448	6.76618	
0.0408936	0.102625	6.76618	
0.0292969	0.101337	6.76618	
-0.00305176	0.100671	6.76618	
0.000610352	0.100317	6.76618	
-0.0848389	0.0992371	6.76618	
-0.0537109	0.0992493	6.76618	
-0.0708008	0.0997803	6.76618	
-0.0671387	0.099176	6.76618	
0.0134277	0.098053	6.76618	
0.0640869	0.0968872	6.76618	
0.15686	0.0973328	6.76618	
0.0378418	0.0970093	6.76618	
0.0366211	0.0961487	6.76618	
0.134888	0.0963379	6.76618	
0.213623	0.0977783	6.74874	
0.0952148	0.0983887	6.74874	
-0.249023	0.0993652	6.74874	
-0.0402832	0.0981018	6.73131	
0.108643	0.0978394	6.73131	
-0.0579834	0.0979736	6.73131	
-0.159302	0.0994812	6.71387	
-0.109253	0.0988586	6.71387	
0.127563	0.0995361	6.71387	
-0.0354004	0.0997192	6.71387	
-0.0946045	0.100262	6.71387	
-0.0445557	0.100708	6.69643	
0.0134277	0.100525	6.69643	
0.12207	0.101306	6.69643	
0.0915527	0.101941	6.69643	
-0.0561523	0.101117	6.69643	
-0.0256348	0.101288	6.69643	
0.088501	0.100653	6.69643	
-0.00244141	0.0999146	6.69643	
-0.0158691	0.0986267	6.69643	
-0.0939941	0.0980896	6.69643	
0	0.0968689	6.69643	
-0.100708	0.0977051	6.67899	
0.0518799	0.0970154	6.67899	
0.0335693	0.0968506	6.67899	
-0.127563	0.0979004	6.67899	
0.0939941	0.0980652	6.67899	
0.107422	0.098175	6.67899	
0.116577	0.0972839	6.67899	
0.0830078	0.0977295	6.66155	
0.119629	0.0982605	6.66155	
-0.078125	0.0986267	6.66155	
-0.10437	0.0971985	6.66155	
0.189819	0.0981018	6.66155	
0.0817871	0.0986816	6.66155	
-0.0793457	0.0987854	6.66155	
-0.200806	0.100299	6.66155	
-0.0250244	0.100043	6.66155	
0.170898	0.100049	6.64411	
-0.0683594	0.0951965	6.64411	
-0.103149	0.0940491	6.64411	
0.043335	0.0930664	6.64411	
0.196533	0.0929932	6.64411	
0.055542	0.09328	6.64411	
-0.194702	0.0944214	6.64411	
0.0311279	0.0922119	6.64411	
0.204468	0.0918396	6.64411	
-0.168457	0.0913574	6.64411	
-0.00427246	0.0909485	6.64411	
0.00305176	0.0901978	6.64411	
0.00610352	0.0896973	6.66155	
0.0482178	0.0896545	6.66155	
0.0671387	0.0901123	6.66155	
0.043335	0.0879944	6.66155	
-0.187988	0.0883423	6.66155	
0.100098	0.0886719	6.66155	
0.0201416	0.0886658	6.66155	
-0.0952148	0.0887573	6.66155	
-0.0872803	0.0885803	6.67899	
0.0128174	0.0876221	6.67899	
-0.00305176	0.0872864	6.67899	
-0.0872803	0.0881287	6.67899	
0.130615	0.0892151	6.67899	
0.115967	0.0898743	6.69643	
-0.0891113	0.0888428	6.69643	
0.0848389	0.0890869	6.69643	
-0.0457764	0.0892944	6.69643	
0.00610352	0.086145	6.69643	
0.0396729	0.0847656	6.69643	
-0.0720215	0.0836304	6.69643	
-0.0146484	0.0828064	6.67899	
0.109253	0.0835938	6.67899	
0.0616455	0.0822571	6.67899	
0.0231934	0.0804688	6.67899	
0.0842285	0.0803894	6.67899	
0.0402832	0.0805054	6.67899	
0.183105	0.0817078	6.67899	
0.111084	0.0821899	6.67899	
-0.114136	0.0832581	6.67899	
0.0524902	0.0826843	6.67899	
-0.0286865	0.0828003	6.67899	
-0.0164795	0.0808899	6.67899	
-0.00854492	0.0807251	6.67899	
-0.131836	0.0811951	6.67899	
-0.109253	0.0808838	6.67899	
-0.0408936	0.0794922	6.67899	
0.045166	0.0795349	6.66155	
-0.0335693	0.0795776	6.66155	
0.0177002	0.0797241	6.66155	
0.134277	0.0810608	6.64411	
0	0.0802124	6.64411	
0.0970459	0.0806458	6.64411	
0.0537109	0.0804749	6.62667	
-0.0115967	0.0799194	6.62667	
0.0274658	0.0800598	6.62667	
0.0396729	0.0798157	6.60924	
-0.255737	0.0808044	6.60924	
-0.0628662	0.0810547	6.5918	
0.0744629	0.0814331	6.5918	
-0.0848389	0.0809326	6.5918	
-0.0341797	0.0791382	6.57436	
0.0152588	0.0783386	6.57436	
0.103149	0.0768799	6.55692	
0.0109863	0.0765869	6.55692	
-0.03479	0.0758484	6.55692	
0.0665283	0.0759338	6.53948	
0.175171	0.0760925	6.53948	
-0.0744629	0.0757446	6.53948	
-0.166626	0.0761353	6.52204	
0.177612	0.0775574	6.52204	
0.0109863	0.0767212	6.52204	
-0.101929	0.0772949	6.5046	
0.111694	0.0782776	6.5046	
0.180054	0.0788574	6.48717	
0.0860596	0.0788025	6.46973	
-0.0494385	0.0787354	6.46973	
-0.0384521	0.0788635	6.45229	
0.0756836	0.0787354	6.45229	
0.180054	0.0805115	6.43485	
-0.124512	0.0815979	6.43485	
0.136108	0.082019	6.41741	
-0.125122	0.0832703	6.41741	
-0.147705	0.0837402	6.39997	
0.113525	0.0843567	6.39997	
-0.000610352	0.0840271	6.39997	
0.0250244	0.0830017	6.39997	
-0.0195313	0.0822571	6.38253	
0.0146484	0.0813293	6.38253	
-0.117188	0.0813354	6.38253	
-0.0714111	0.0812195	6.38253	
0.0585938	0.0806091	6.36509	
0.0976563	0.0808044	6.36509	
-0.0561523	0.0803223	6.34766	
-0.0183105	0.0786072	6.34766	
0.0537109	0.0783264	6.33022	
-0.0335693	0.0778687	6.33022	
0.0567627	0.0764282	6.31278	
0.112305	0.077301	6.31278	
0.154419	0.0771362	6.31278	
-0.0494385	0.076947	6.29534	
-0.219727	0.0781128	6.29534	
0.012207	0.0778015	6.29534	
0.0500488	0.0763367	6.29534	
0.0396729	0.076178	6.29534	
-0.12085	0.0754395	6.29534	
-0.175781	0.076886	6.29534	
-0.0140381	0.0749817	6.29534	
0.0518799	0.0738159	6.29534	
0.0238037	0.0740112	6.29534	
0.00427246	0.0740234	6.29534	
0.0909424	0.0748718	6.2779	
0.180054	0.0761902	6.2779	
-0.00305176	0.0755493	6.2779	
0.0921631	0.0760376	6.2779	
0.0628662	0.0747864	6.26046	
0.0256348	0.0740417	6.26046	
0.0354004	0.0741943	6.26046	
0.0750732	0.0739929	6.24302	
-0.078125	0.0739014	6.24302	
0.167847	0.0754517	6.22559	
-0.15686	0.0769897	6.22559	
0.0469971	0.0765869	6.20815	
-0.057373	0.0758545	6.20815	
0.0268555	0.0749634	6.19071	
0.022583	0.0742981	6.19071	
-0.0592041	0.0740417	6.17327	
0.0189209	0.0737732	6.17327	
0.132446	0.0750366	6.17327	
-0.145264	0.0760925	6.15583	
-0.0830078	0.0762024	6.15583	
0.000610352	0.076062	6.15583	
0.0793457	0.0757629	6.15583	
-0.0311279	0.0754578	6.15583	
-0.0500488	0.0757263	6.13839	
-0.0146484	0.0750305	6.13839	
0.0177002	0.0748047	6.13839	
0.0134277	0.0731079	6.13839	
0.0402832	0.0723999	6.13839	
-0.00793457	0.0713379	6.13839	
0.0579834	0.0713928	6.13839	
0.00549316	0.0711609	6.13839	
-0.0109863	0.071106	6.13839	
0.103149	0.072052	6.15583	
-0.065918	0.0713928	6.15583	
-0.103149	0.0713318	6.15583	
-0.00854492	0.0710083	6.15583	
0.0750732	0.0713074	6.15583	
0	0.0709717	6.15583	
-0.00427246	0.0708374	6.15583	
0.0598145	0.0700928	6.15583	
0.0128174	0.0702209	6.15583	
0.111084	0.0703613	6.15583	
0.0402832	0.0702271	6.15583	
0.119019	0.0713013	6.13839	
0.0421143	0.0714478	6.13839	
-0.132446	0.0723755	6.13839	
0	0.0698181	6.13839	
0.067749	0.0698669	6.13839	
0.178223	0.0709045	6.15583	
-0.0817871	0.070874	6.15583	
-0.0836182	0.0713684	6.15583	
-0.0341797	0.0715576	6.15583	
0.0964355	0.0714905	6.15583	
0.165405	0.0730347	6.15583	
-0.137939	0.0740662	6.17327	
-0.106201	0.0744629	6.17327	
0.032959	0.0730408	6.17327	
-0.0646973	0.0729431	6.17327	
0.0567627	0.0718445	6.17327	
0.0335693	0.0704041	6.19071	
0.0762939	0.0710571	6.19071	
0.0683594	0.0707214	6.19071	
0.0219727	0.0698242	6.19071	
-0.0195313	0.068219	6.19071	
-0.0384521	0.0677429	6.19071	
-0.0646973	0.0678955	6.20815	
-0.0939941	0.0684509	6.20815	
-0.00732422	0.0677673	6.20815	
0.0140381	0.0661072	6.22559	
0.0238037	0.0651001	6.22559	
-0.00427246	0.0637817	6.24302	
0.0616455	0.063147	6.24302	
0.0921631	0.0625916	6.26046	
0.0640869	0.0620972	6.26046	
0.0213623	0.0623047	6.26046	
-0.0830078	0.0628845	6.2779	
-0.119629	0.0638855	6.2779	
-0.0170898	0.0639099	6.2779	
-0.0506592	0.0632446	6.2779	
0.111084	0.0636414	6.2779	
0.0909424	0.0639648	6.2779	
-0.0146484	0.0631348	6.29534	
-0.0518799	0.063092	6.29534	
0.115967	0.0640686	6.29534	
0.105591	0.0645874	6.29534	
0.0158691	0.0644104	6.31278	
-0.0958252	0.064801	6.31278	
-0.0860596	0.0645386	6.31278	
-0.0177002	0.0631714	6.31278	
-0.055542	0.0632324	6.33022	
0.0140381	0.0611755	6.33022	
0.0427246	0.0614807	6.33022	
0.15686	0.0625488	6.33022	
0.0323486	0.0624756	6.34766	
-0.0109863	0.061377	6.34766	
0.151367	0.0611328	6.34766	
0.0738525	0.061731	6.34766	
-0.125732	0.0624695	6.34766	
-0.00610352	0.0622925	6.36509	
-0.0756836	0.0630066	6.36509	
0.136108	0.0634583	6.36509	
0.00854492	0.0617432	6.36509	
-0.10376	0.0627502	6.38253	
0.127563	0.0631042	6.38253	
0.0610352	0.0630859	6.38253	
-0.167847	0.0645081	6.38253	
0.298462	0.0671387	6.38253	
-0.00610352	0.066449	6.39997	
-0.022583	0.0658936	6.39997	
-0.00549316	0.06427	6.39997	
0.0268555	0.06297	6.39997	
-0.202637	0.0645264	6.39997	
0.0299072	0.0642517	6.39997	
0.0213623	0.0641968	6.39997	
0.0756836	0.0647278	6.39997	
-0.106201	0.0651978	6.39997	
-0.130615	0.0663147	6.39997	
0.0671387	0.0656616	6.39997	
0.0842285	0.0650513	6.39997	
-0.010376	0.064325	6.39997	
0.0506592	0.0648254	6.38253	
0.120239	0.0652344	6.38253	
-0.134277	0.0662659	6.38253	
0.20752	0.0678406	6.38253	
-0.0311279	0.0680054	6.38253	
-0.144653	0.0692749	6.39997	
0.0579834	0.0697205	6.39997	
-0.00976563	0.0694153	6.39997	
-0.0341797	0.0696777	6.39997	
-0.0445557	0.0695435	6.39997	
0.0866699	0.0703552	6.39997	
0.00366211	0.070282	6.39997	
0.0170898	0.0694214	6.39997	
0.0262451	0.0690247	6.39997	
-0.0372314	0.0683655	6.39997	
0.167847	0.0699585	6.39997	
0.0689697	0.0698975	6.38253	
-0.0250244	0.0701477	6.38253	
-0.0610352	0.0707153	6.38253	
0.0830078	0.0709473	6.39997	
0.298462	0.0738037	6.39997	
-0.0616455	0.0733093	6.39997	
0.0695801	0.0736023	6.39997	
-0.0964355	0.0733765	6.39997	
0.0695801	0.0736511	6.39997	
-0.0933838	0.0732605	6.39997	
-0.0750732	0.0740112	6.39997	
-0.0640869	0.0739746	6.39997	
-0.134888	0.0735413	6.39997	
-0.0915527	0.0736389	6.39997	
-0.0115967	0.0729187	6.38253	
-0.0604248	0.0731812	6.38253	
0.00976563	0.0723145	6.38253	
0.0213623	0.070874	6.38253	
0.172729	0.0712219	6.38253	
-0.0201416	0.0703613	6.38253	
0.0463867	0.0704956	6.38253	
0.116577	0.0710144	6.38253	
-0.00793457	0.0705261	6.39997	
0.0616455	0.0708069	6.39997	
0.171509	0.071759	6.39997	
-0.177612	0.0728516	6.39997	
-0.0213623	0.0728455	6.39997	
0.098877	0.0736389	6.39997	
0.0750732	0.0740051	6.39997	
-0.0292969	0.0736511	6.39997	
-0.123901	0.0739502	6.39997	
-0.0152588	0.0740295	6.39997	
0.0128174	0.0740173	6.39997	
0.128174	0.075061	6.39997	
-0.0842285	0.0758606	6.39997	
-0.065918	0.0759033	6.39997	
-0.045166	0.0754333	6.39997	
0.0268555	0.075061	6.39997	
-0.045166	0.0752991	6.39997	
-0.00488281	0.0745178	6.39997	
0.151367	0.0748352	6.39997	
-0.0231934	0.0748962	6.39997	
0.0415039	0.0748047	6.39997	
0.0262451	0.0739563	6.39997	
-0.0616455	0.0736633	6.39997	
0.043335	0.0739502	6.39997	
-0.110474	0.0745361	6.38253	
0.0280762	0.0736572	6.38253	
-0.03479	0.0729492	6.38253	
-0.0231934	0.0730225	6.38253	
-0.0164795	0.072229	6.38253	
0.15686	0.072937	6.38253	
0.162354	0.0743835	6.38253	
-0.0305176	0.0741333	6.38253	
0.0219727	0.0742126	6.38253	
0.12207	0.0750061	6.38253	
0.144043	0.0748779	6.38253	
0.00793457	0.0746338	6.36509	
-0.15686	0.0760925	6.36509	
0.00183105	0.0745972	6.34766	
-0.10376	0.0748962	6.34766	
0.098877	0.0746277	6.33022	
0.0292969	0.0748596	6.33022	
-0.0299072	0.0744019	6.33022	
-0.114136	0.0741821	6.33022	
0.0830078	0.0749268	6.31278	
-0.0012207	0.0739014	6.31278	
0.0646973	0.0732727	6.31278	
-0.0549316	0.0732117	6.31278	
-0.105591	0.0725891	6.31278	
0.0738525	0.070343	6.31278	
0.057373	0.0708557	6.31278	
-0.148315	0.072113	6.31278	
0.00915527	0.0721497	6.33022	
0.00244141	0.0719055	6.33022	
0.0964355	0.0708435	6.33022	
-0.195313	0.0724976	6.33022	
-0.0335693	0.0726196	6.33022	
0.0720215	0.072583	6.33022	
0.0109863	0.0716309	6.31278	
0.0891113	0.0712158	6.31278	
0.0469971	0.0710144	6.31278	
0.020752	0.0703796	6.33022	
-0.03479	0.0706238	6.33022	
0.0390625	0.0705078	6.33022	
0.194702	0.0712524	6.33022	
0.0445557	0.0703552	6.33022	
-0.0646973	0.068927	6.33022	
0.0878906	0.0694946	6.33022	
-0.0726318	0.0687744	6.33022	
0.0506592	0.0687012	6.33022	
0.120239	0.0698059	6.33022	
-0.180664	0.0712708	6.33022	
0.055542	0.0713806	6.33022	
-0.0183105	0.070697	6.31278	
-0.0286865	0.0709473	6.31278	
-0.0585938	0.0713623	6.31278	
-0.0671387	0.0717712	6.31278	
-0.0323486	0.0717224	6.31278	
-0.055542	0.0705994	6.31278	
0.143433	0.071344	6.33022	
-0.0292969	0.0713867	6.33022	
-0.0268555	0.0710449	6.33022	
0.0531006	0.0707458	6.33022	
0.032959	0.0680908	6.33022	
0.000610352	0.0674805	6.33022	
0.0909424	0.0676941	6.33022	
0.0189209	0.0669189	6.31278	
-0.0518799	0.0667419	6.31278	
0.0500488	0.0663086	6.31278	
-0.0762939	0.0663208	6.31278	
-0.065918	0.0663391	6.31278	
0.162354	0.0666138	6.31278	
-0.0305176	0.0660034	6.29534	
-0.0158691	0.0660461	6.29534	
0.0219727	0.0656616	6.29534	
0.180664	0.0673706	6.31278	
-0.0598145	0.0677551	6.31278	
-0.0170898	0.0661987	6.31278	
0.123291	0.0672302	6.31278	
-0.00183105	0.0667847	6.31278	
-0.0115967	0.0657349	6.31278	
-0.0506592	0.0661621	6.31278	
0.197754	0.0675232	6.31278	
0.115967	0.0669678	6.29534	
-0.22522	0.0674438	6.29534	
-0.098877	0.068219	6.29534	
0.13855	0.0686157	6.29534	
0.113525	0.0690002	6.29534	
-0.167236	0.0703796	6.29534	
-0.0665283	0.0698059	6.29534	
-0.256348	0.0722168	6.29534	
0.232544	0.0744141	6.29534	
-0.0311279	0.0734436	6.29534	
-0.00366211	0.0726379	6.2779	
-0.0482178	0.0724609	6.2779	
0.00366211	0.0720459	6.2779	
0.0360107	0.0721375	6.2779	
0.0683594	0.0723694	6.2779	
-0.0213623	0.0725342	6.2779	
0.0689697	0.0717102	6.2779	
-0.0378418	0.0718567	6.2779	
-0.0256348	0.071698	6.2779	
0.0610352	0.0720459	6.2779	
0.123901	0.0726685	6.2779	
-0.0854492	0.0730896	6.2779	
0.0695801	0.0726807	6.2779	
0.0384521	0.0727844	6.26046	
0.0512695	0.0729492	6.26046	
0.0616455	0.0733337	6.26046	
-0.151978	0.0746887	6.26046	
0.0372314	0.0734924	6.24302	
0.0701904	0.0725708	6.24302	
-0.022583	0.0724915	6.24302	
0.0415039	0.0726868	6.24302	
-0.0384521	0.0718506	6.22559	
0.15564	0.0719666	6.22559	
0.0891113	0.0727783	6.22559	
-0.0366211	0.0715759	6.22559	
0.045166	0.0720093	6.22559	
0.0421143	0.0713928	6.22559	
-0.0769043	0.0711731	6.22559	
-0.0152588	0.0710327	6.22559	
-0.0939941	0.0716736	6.22559	
-0.0720215	0.0712524	6.22559	
-0.128784	0.0717102	6.20815	
-0.0262451	0.0719604	6.20815	
-0.0274658	0.0715881	6.20815	
0.0787354	0.0718262	6.20815	
0	0.0707703	6.20815	
0.0500488	0.0705322	6.20815	
0.0250244	0.0702087	6.19071	
0.0653076	0.0693787	6.19071	
0.189209	0.0711792	6.19071	
0.132446	0.0724792	6.19071	
-0.10437	0.0725586	6.19071	
-0.0115967	0.0707214	6.19071	
0.123901	0.0716248	6.17327	
-0.0280762	0.0711853	6.17327	
0.010376	0.0711792	6.17327	
0.00244141	0.0703125	6.15583	
0.0567627	0.0704102	6.15583	
-0.114136	0.071344	6.15583	
-0.020752	0.0712036	6.13839	
0.0109863	0.0709229	6.13839	
0.03479	0.0693237	6.13839	
-0.165405	0.0705322	6.12095	
0.126953	0.0711548	6.12095	
-0.131226	0.0715881	6.12095	
-0.00366211	0.0708984	6.10352	
-0.0109863	0.0705017	6.10352	
0.0817871	0.0701172	6.10352	
-0.0457764	0.0687683	6.10352	
0.0811768	0.0690247	6.10352	
0.200195	0.0708435	6.10352	
0.0183105	0.0707397	6.08608	
-0.0750732	0.0709045	6.08608	
0.0634766	0.0708679	6.08608	
